# OpenSignals Text File Format
# {"CC:78:AB:5E:8E:CE":{"sensor":["RAW"],"device name":"CC:78:AB:5E:8E:CE","column":["nSeq","I1","I2","O1","O2","A1"],"sync interval":2,"time":"10:07:29","comments":"","device connection":"BLECC:78:AB:5E:8E:CE","channels":[1],"date":"2022-05-11","mode":0,"digital IO":[0,0,1,1],"firmware version":0,"device":"bitalino_rev","position":0,"sampling rate":100,"label":["A1"],"resolution":[10],"special":[{}]}}
# EndOfHeader
0	0	0	0	0	453
1	0	0	0	0	497
2	0	0	0	0	429
3	0	0	0	0	483
4	0	0	0	0	462
5	0	0	0	0	469
6	0	0	0	0	448
7	0	0	0	0	460
8	0	0	0	0	444
9	0	0	0	0	484
10	0	0	0	0	437
11	0	0	0	0	458
12	0	0	0	0	451
13	0	0	0	0	465
14	0	0	0	0	464
15	0	0	0	0	445
0	0	0	0	0	455
1	0	0	0	0	434
2	0	0	0	0	443
3	0	0	0	0	439
4	0	0	0	0	464
5	0	0	0	0	452
6	0	0	0	0	433
7	0	0	0	0	455
8	0	0	0	0	438
9	0	0	0	0	425
10	0	0	0	0	476
11	0	0	0	0	451
12	0	0	0	0	445
13	0	0	0	0	477
14	0	0	0	0	450
15	0	0	0	0	445
0	0	0	0	0	442
1	0	0	0	0	459
2	0	0	0	0	451
3	0	0	0	0	476
4	0	0	0	0	444
5	0	0	0	0	483
6	0	0	0	0	444
7	0	0	0	0	453
8	0	0	0	0	455
9	0	0	0	0	460
10	0	0	0	0	468
11	0	0	0	0	444
12	0	0	0	0	452
13	0	0	0	0	458
14	0	0	0	0	475
15	0	0	0	0	464
0	0	0	0	0	504
1	0	0	0	0	560
2	0	0	0	0	534
3	0	0	0	0	505
4	0	0	0	0	521
5	0	0	0	0	455
6	0	0	0	0	493
7	0	0	0	0	498
8	0	0	0	0	506
9	0	0	0	0	505
10	0	0	0	0	501
11	0	0	0	0	512
12	0	0	0	0	524
13	0	0	0	0	537
14	0	0	0	0	459
15	0	0	0	0	477
0	0	0	0	0	476
1	0	0	0	0	481
2	0	0	0	0	528
3	0	0	0	0	478
4	0	0	0	0	490
5	0	0	0	0	483
6	0	0	0	0	469
7	0	0	0	0	458
8	0	0	0	0	502
9	0	0	0	0	499
10	0	0	0	0	481
11	0	0	0	0	465
12	0	0	0	0	483
13	0	0	0	0	476
14	0	0	0	0	494
15	0	0	0	0	466
0	0	0	0	0	476
1	0	0	0	0	475
2	0	0	0	0	473
3	0	0	0	0	473
4	0	0	0	0	478
5	0	0	0	0	479
6	0	0	0	0	464
7	0	0	0	0	533
8	0	0	0	0	476
9	0	0	0	0	465
10	0	0	0	0	477
11	0	0	0	0	486
12	0	0	0	0	478
13	0	0	0	0	478
14	0	0	0	0	477
15	0	0	0	0	474
0	0	0	0	0	468
1	0	0	0	0	492
2	0	0	0	0	474
3	0	0	0	0	458
4	0	0	0	0	480
5	0	0	0	0	476
6	0	0	0	0	478
7	0	0	0	0	472
8	0	0	0	0	464
9	0	0	0	0	472
10	0	0	0	0	469
11	0	0	0	0	480
12	0	0	0	0	471
13	0	0	0	0	476
14	0	0	0	0	480
15	0	0	0	0	476
0	0	0	0	0	498
1	0	0	0	0	475
2	0	0	0	0	468
3	0	0	0	0	464
4	0	0	0	0	528
5	0	0	0	0	489
6	0	0	0	0	479
7	0	0	0	0	503
8	0	0	0	0	484
9	0	0	0	0	473
10	0	0	0	0	476
11	0	0	0	0	473
12	0	0	0	0	513
13	0	0	0	0	471
14	0	0	0	0	506
15	0	0	0	0	487
0	0	0	0	0	535
1	0	0	0	0	473
2	0	0	0	0	477
3	0	0	0	0	473
4	0	0	0	0	476
5	0	0	0	0	478
6	0	0	0	0	459
7	0	0	0	0	482
8	0	0	0	0	467
9	0	0	0	0	516
10	0	0	0	0	516
11	0	0	0	0	474
12	0	0	0	0	520
13	0	0	0	0	525
14	0	0	0	0	523
15	0	0	0	0	514
0	0	0	0	0	510
1	0	0	0	0	483
2	0	0	0	0	494
3	0	0	0	0	491
4	0	0	0	0	524
5	0	0	0	0	515
6	0	0	0	0	507
7	0	0	0	0	546
8	0	0	0	0	504
9	0	0	0	0	510
10	0	0	0	0	513
11	0	0	0	0	518
12	0	0	0	0	519
13	0	0	0	0	525
14	0	0	0	0	508
15	0	0	0	0	518
0	0	0	0	0	513
1	0	0	0	0	515
2	0	0	0	0	508
3	0	0	0	0	486
4	0	0	0	0	524
5	0	0	0	0	518
6	0	0	0	0	520
7	0	0	0	0	493
8	0	0	0	0	544
9	0	0	0	0	539
10	0	0	0	0	517
11	0	0	0	0	516
12	0	0	0	0	521
13	0	0	0	0	493
14	0	0	0	0	485
15	0	0	0	0	545
0	0	0	0	0	496
1	0	0	0	0	525
2	0	0	0	0	476
3	0	0	0	0	511
4	0	0	0	0	540
5	0	0	0	0	496
6	0	0	0	0	533
7	0	0	0	0	528
8	0	0	0	0	461
9	0	0	0	0	515
10	0	0	0	0	521
11	0	0	0	0	539
12	0	0	0	0	467
13	0	0	0	0	533
14	0	0	0	0	519
15	0	0	0	0	514
0	0	0	0	0	507
1	0	0	0	0	524
2	0	0	0	0	453
3	0	0	0	0	524
4	0	0	0	0	533
5	0	0	0	0	508
6	0	0	0	0	521
7	0	0	0	0	454
8	0	0	0	0	543
9	0	0	0	0	526
10	0	0	0	0	508
11	0	0	0	0	484
12	0	0	0	0	527
13	0	0	0	0	465
14	0	0	0	0	575
15	0	0	0	0	406
0	0	0	0	0	612
1	0	0	0	0	461
2	0	0	0	0	508
3	0	0	0	0	500
4	0	0	0	0	502
5	0	0	0	0	580
6	0	0	0	0	468
7	0	0	0	0	674
8	0	0	0	0	374
9	0	0	0	0	574
10	0	0	0	0	528
11	0	0	0	0	488
12	0	0	0	0	435
13	0	0	0	0	549
14	0	0	0	0	495
15	0	0	0	0	563
0	0	0	0	0	495
1	0	0	0	0	525
2	0	0	0	0	569
3	0	0	0	0	418
4	0	0	0	0	590
5	0	0	0	0	550
6	0	0	0	0	352
7	0	0	0	0	567
8	0	0	0	0	546
9	0	0	0	0	432
10	0	0	0	0	336
11	0	0	0	0	632
12	0	0	0	0	422
13	0	0	0	0	473
14	0	0	0	0	550
15	0	0	0	0	614
0	0	0	0	0	500
1	0	0	0	0	427
2	0	0	0	0	508
3	0	0	0	0	547
4	0	0	0	0	852
5	0	0	0	0	468
6	0	0	0	0	465
7	0	0	0	0	639
8	0	0	0	0	389
9	0	0	0	0	543
10	0	0	0	0	472
11	0	0	0	0	724
12	0	0	0	0	656
13	0	0	0	0	539
14	0	0	0	0	494
15	0	0	0	0	324
0	0	0	0	0	544
1	0	0	0	0	830
2	0	0	0	0	344
3	0	0	0	0	272
4	0	0	0	0	713
5	0	0	0	0	442
6	0	0	0	0	609
7	0	0	0	0	461
8	0	0	0	0	695
9	0	0	0	0	387
10	0	0	0	0	575
11	0	0	0	0	320
12	0	0	0	0	1022
13	0	0	0	0	448
14	0	0	0	0	819
15	0	0	0	0	369
0	0	0	0	0	489
1	0	0	0	0	837
2	0	0	0	0	562
3	0	0	0	0	433
4	0	0	0	0	732
5	0	0	0	0	387
6	0	0	0	0	545
7	0	0	0	0	323
8	0	0	0	0	296
9	0	0	0	0	457
10	0	0	0	0	387
11	0	0	0	0	838
12	0	0	0	0	218
13	0	0	0	0	215
14	0	0	0	0	491
15	0	0	0	0	344
0	0	0	0	0	423
1	0	0	0	0	951
2	0	0	0	0	502
3	0	0	0	0	467
4	0	0	0	0	616
5	0	0	0	0	662
6	0	0	0	0	648
7	0	0	0	0	384
8	0	0	0	0	637
9	0	0	0	0	456
10	0	0	0	0	364
11	0	0	0	0	905
12	0	0	0	0	338
13	0	0	0	0	460
14	0	0	0	0	561
15	0	0	0	0	514
0	0	0	0	0	447
1	0	0	0	0	472
2	0	0	0	0	709
3	0	0	0	0	422
4	0	0	0	0	867
5	0	0	0	0	346
6	0	0	0	0	558
7	0	0	0	0	585
8	0	0	0	0	413
9	0	0	0	0	468
10	0	0	0	0	605
11	0	0	0	0	368
12	0	0	0	0	469
13	0	0	0	0	563
14	0	0	0	0	507
15	0	0	0	0	426
0	0	0	0	0	589
1	0	0	0	0	301
2	0	0	0	0	504
3	0	0	0	0	332
4	0	0	0	0	556
5	0	0	0	0	473
6	0	0	0	0	471
7	0	0	0	0	509
8	0	0	0	0	570
9	0	0	0	0	553
10	0	0	0	0	579
11	0	0	0	0	383
12	0	0	0	0	527
13	0	0	0	0	650
14	0	0	0	0	575
15	0	0	0	0	487
0	0	0	0	0	590
1	0	0	0	0	547
2	0	0	0	0	408
3	0	0	0	0	519
4	0	0	0	0	585
5	0	0	0	0	599
6	0	0	0	0	421
7	0	0	0	0	544
8	0	0	0	0	488
9	0	0	0	0	516
10	0	0	0	0	554
11	0	0	0	0	422
12	0	0	0	0	476
13	0	0	0	0	514
14	0	0	0	0	507
15	0	0	0	0	605
0	0	0	0	0	520
1	0	0	0	0	583
2	0	0	0	0	524
3	0	0	0	0	523
4	0	0	0	0	491
5	0	0	0	0	555
6	0	0	0	0	485
7	0	0	0	0	565
8	0	0	0	0	489
9	0	0	0	0	492
10	0	0	0	0	565
11	0	0	0	0	547
12	0	0	0	0	516
13	0	0	0	0	543
14	0	0	0	0	514
15	0	0	0	0	552
0	0	0	0	0	514
1	0	0	0	0	492
2	0	0	0	0	578
3	0	0	0	0	475
4	0	0	0	0	498
5	0	0	0	0	555
6	0	0	0	0	481
7	0	0	0	0	527
8	0	0	0	0	524
9	0	0	0	0	476
10	0	0	0	0	511
11	0	0	0	0	512
12	0	0	0	0	440
13	0	0	0	0	569
14	0	0	0	0	527
15	0	0	0	0	560
0	0	0	0	0	532
1	0	0	0	0	478
2	0	0	0	0	497
3	0	0	0	0	504
4	0	0	0	0	563
5	0	0	0	0	476
6	0	0	0	0	509
7	0	0	0	0	559
8	0	0	0	0	473
9	0	0	0	0	495
10	0	0	0	0	499
11	0	0	0	0	578
12	0	0	0	0	555
13	0	0	0	0	522
14	0	0	0	0	487
15	0	0	0	0	469
0	0	0	0	0	504
1	0	0	0	0	549
2	0	0	0	0	516
3	0	0	0	0	529
4	0	0	0	0	476
5	0	0	0	0	487
6	0	0	0	0	528
7	0	0	0	0	477
8	0	0	0	0	555
9	0	0	0	0	491
10	0	0	0	0	478
11	0	0	0	0	535
12	0	0	0	0	512
13	0	0	0	0	504
14	0	0	0	0	490
15	0	0	0	0	523
0	0	0	0	0	517
1	0	0	0	0	503
2	0	0	0	0	519
3	0	0	0	0	546
4	0	0	0	0	463
5	0	0	0	0	487
6	0	0	0	0	490
7	0	0	0	0	512
8	0	0	0	0	491
9	0	0	0	0	492
10	0	0	0	0	529
11	0	0	0	0	476
12	0	0	0	0	534
13	0	0	0	0	522
14	0	0	0	0	483
15	0	0	0	0	532
0	0	0	0	0	503
1	0	0	0	0	506
2	0	0	0	0	497
3	0	0	0	0	459
4	0	0	0	0	511
5	0	0	0	0	510
6	0	0	0	0	506
7	0	0	0	0	540
8	0	0	0	0	507
9	0	0	0	0	489
10	0	0	0	0	497
11	0	0	0	0	566
12	0	0	0	0	531
13	0	0	0	0	524
14	0	0	0	0	536
15	0	0	0	0	512
0	0	0	0	0	525
1	0	0	0	0	521
2	0	0	0	0	508
3	0	0	0	0	514
4	0	0	0	0	477
5	0	0	0	0	556
6	0	0	0	0	514
7	0	0	0	0	518
8	0	0	0	0	507
9	0	0	0	0	560
10	0	0	0	0	574
11	0	0	0	0	469
12	0	0	0	0	524
13	0	0	0	0	533
14	0	0	0	0	504
15	0	0	0	0	524
0	0	0	0	0	492
1	0	0	0	0	524
2	0	0	0	0	541
3	0	0	0	0	501
4	0	0	0	0	571
5	0	0	0	0	551
6	0	0	0	0	508
7	0	0	0	0	493
8	0	0	0	0	490
9	0	0	0	0	501
10	0	0	0	0	529
11	0	0	0	0	529
12	0	0	0	0	508
13	0	0	0	0	479
14	0	0	0	0	550
15	0	0	0	0	452
0	0	0	0	0	516
1	0	0	0	0	530
2	0	0	0	0	507
3	0	0	0	0	503
4	0	0	0	0	510
5	0	0	0	0	511
6	0	0	0	0	547
7	0	0	0	0	496
8	0	0	0	0	501
9	0	0	0	0	535
10	0	0	0	0	517
11	0	0	0	0	519
12	0	0	0	0	507
13	0	0	0	0	493
14	0	0	0	0	531
15	0	0	0	0	507
0	0	0	0	0	503
1	0	0	0	0	497
2	0	0	0	0	508
3	0	0	0	0	539
4	0	0	0	0	492
5	0	0	0	0	524
6	0	0	0	0	468
7	0	0	0	0	513
8	0	0	0	0	499
9	0	0	0	0	539
10	0	0	0	0	518
11	0	0	0	0	518
12	0	0	0	0	520
13	0	0	0	0	506
14	0	0	0	0	504
15	0	0	0	0	505
0	0	0	0	0	547
1	0	0	0	0	502
2	0	0	0	0	514
3	0	0	0	0	527
4	0	0	0	0	520
5	0	0	0	0	494
6	0	0	0	0	503
7	0	0	0	0	511
8	0	0	0	0	552
9	0	0	0	0	453
10	0	0	0	0	506
11	0	0	0	0	508
12	0	0	0	0	486
13	0	0	0	0	561
14	0	0	0	0	518
15	0	0	0	0	517
0	0	0	0	0	526
1	0	0	0	0	499
2	0	0	0	0	506
3	0	0	0	0	526
4	0	0	0	0	523
5	0	0	0	0	511
6	0	0	0	0	516
7	0	0	0	0	517
8	0	0	0	0	502
9	0	0	0	0	535
10	0	0	0	0	510
11	0	0	0	0	500
12	0	0	0	0	496
13	0	0	0	0	531
14	0	0	0	0	541
15	0	0	0	0	529
0	0	0	0	0	515
1	0	0	0	0	519
2	0	0	0	0	493
3	0	0	0	0	515
4	0	0	0	0	480
5	0	0	0	0	527
6	0	0	0	0	528
7	0	0	0	0	511
8	0	0	0	0	467
9	0	0	0	0	526
10	0	0	0	0	537
11	0	0	0	0	500
12	0	0	0	0	527
13	0	0	0	0	525
14	0	0	0	0	503
15	0	0	0	0	531
0	0	0	0	0	519
1	0	0	0	0	504
2	0	0	0	0	504
3	0	0	0	0	504
4	0	0	0	0	523
5	0	0	0	0	528
6	0	0	0	0	503
7	0	0	0	0	511
8	0	0	0	0	525
9	0	0	0	0	524
10	0	0	0	0	485
11	0	0	0	0	519
12	0	0	0	0	520
13	0	0	0	0	506
14	0	0	0	0	511
15	0	0	0	0	514
0	0	0	0	0	517
1	0	0	0	0	517
2	0	0	0	0	486
3	0	0	0	0	511
4	0	0	0	0	519
5	0	0	0	0	526
6	0	0	0	0	497
7	0	0	0	0	506
8	0	0	0	0	493
9	0	0	0	0	515
10	0	0	0	0	523
11	0	0	0	0	491
12	0	0	0	0	511
13	0	0	0	0	484
14	0	0	0	0	519
15	0	0	0	0	574
0	0	0	0	0	473
1	0	0	0	0	504
2	0	0	0	0	494
3	0	0	0	0	519
4	0	0	0	0	523
5	0	0	0	0	565
6	0	0	0	0	503
7	0	0	0	0	515
8	0	0	0	0	506
9	0	0	0	0	591
10	0	0	0	0	499
11	0	0	0	0	490
12	0	0	0	0	531
13	0	0	0	0	527
14	0	0	0	0	497
15	0	0	0	0	519
0	0	0	0	0	542
1	0	0	0	0	560
2	0	0	0	0	535
3	0	0	0	0	501
4	0	0	0	0	510
5	0	0	0	0	507
6	0	0	0	0	537
7	0	0	0	0	513
8	0	0	0	0	497
9	0	0	0	0	509
10	0	0	0	0	507
11	0	0	0	0	539
12	0	0	0	0	491
13	0	0	0	0	515
14	0	0	0	0	498
15	0	0	0	0	515
0	0	0	0	0	534
1	0	0	0	0	495
2	0	0	0	0	499
3	0	0	0	0	508
4	0	0	0	0	507
5	0	0	0	0	534
6	0	0	0	0	524
7	0	0	0	0	491
8	0	0	0	0	596
9	0	0	0	0	581
10	0	0	0	0	481
11	0	0	0	0	531
12	0	0	0	0	515
13	0	0	0	0	508
14	0	0	0	0	603
15	0	0	0	0	506
0	0	0	0	0	527
1	0	0	0	0	539
2	0	0	0	0	555
3	0	0	0	0	517
4	0	0	0	0	527
5	0	0	0	0	505
6	0	0	0	0	533
7	0	0	0	0	498
8	0	0	0	0	508
9	0	0	0	0	518
10	0	0	0	0	482
11	0	0	0	0	546
12	0	0	0	0	518
13	0	0	0	0	466
14	0	0	0	0	551
15	0	0	0	0	508
0	0	0	0	0	501
1	0	0	0	0	490
2	0	0	0	0	520
3	0	0	0	0	492
4	0	0	0	0	534
5	0	0	0	0	578
6	0	0	0	0	464
7	0	0	0	0	505
8	0	0	0	0	531
9	0	0	0	0	508
10	0	0	0	0	551
11	0	0	0	0	462
12	0	0	0	0	510
13	0	0	0	0	497
14	0	0	0	0	477
15	0	0	0	0	497
0	0	0	0	0	518
1	0	0	0	0	472
2	0	0	0	0	507
3	0	0	0	0	495
4	0	0	0	0	575
5	0	0	0	0	494
6	0	0	0	0	435
7	0	0	0	0	615
8	0	0	0	0	497
9	0	0	0	0	338
10	0	0	0	0	778
11	0	0	0	0	0
12	0	0	0	0	910
13	0	0	0	0	509
14	0	0	0	0	330
15	0	0	0	0	652
0	0	0	0	0	206
1	0	0	0	0	1022
2	0	0	0	0	192
3	0	0	0	0	755
4	0	0	0	0	594
5	0	0	0	0	162
6	0	0	0	0	759
7	0	0	0	0	224
8	0	0	0	0	440
9	0	0	0	0	344
10	0	0	0	0	923
11	0	0	0	0	556
12	0	0	0	0	905
13	0	0	0	0	195
14	0	0	0	0	931
15	0	0	0	0	224
0	0	0	0	0	537
1	0	0	0	0	804
2	0	0	0	0	175
3	0	0	0	0	699
4	0	0	0	0	336
5	0	0	0	0	827
6	0	0	0	0	104
7	0	0	0	0	593
8	0	0	0	0	171
9	0	0	0	0	584
10	0	0	0	0	911
11	0	0	0	0	316
12	0	0	0	0	300
13	0	0	0	0	746
14	0	0	0	0	519
15	0	0	0	0	467
0	0	0	0	0	729
1	0	0	0	0	351
2	0	0	0	0	470
3	0	0	0	0	315
4	0	0	0	0	462
5	0	0	0	0	237
6	0	0	0	0	412
7	0	0	0	0	367
8	0	0	0	0	511
9	0	0	0	0	608
10	0	0	0	0	856
11	0	0	0	0	475
12	0	0	0	0	524
13	0	0	0	0	456
14	0	0	0	0	600
15	0	0	0	0	476
0	0	0	0	0	402
1	0	0	0	0	532
2	0	0	0	0	594
3	0	0	0	0	380
4	0	0	0	0	564
5	0	0	0	0	461
6	0	0	0	0	536
7	0	0	0	0	684
8	0	0	0	0	591
9	0	0	0	0	585
10	0	0	0	0	604
11	0	0	0	0	705
12	0	0	0	0	505
13	0	0	0	0	441
14	0	0	0	0	551
15	0	0	0	0	513
0	0	0	0	0	526
1	0	0	0	0	405
2	0	0	0	0	686
3	0	0	0	0	494
4	0	0	0	0	534
5	0	0	0	0	541
6	0	0	0	0	413
7	0	0	0	0	505
8	0	0	0	0	628
9	0	0	0	0	556
10	0	0	0	0	466
11	0	0	0	0	323
12	0	0	0	0	472
13	0	0	0	0	451
14	0	0	0	0	687
15	0	0	0	0	459
0	0	0	0	0	492
1	0	0	0	0	489
2	0	0	0	0	685
3	0	0	0	0	483
4	0	0	0	0	569
5	0	0	0	0	536
6	0	0	0	0	506
7	0	0	0	0	536
8	0	0	0	0	515
9	0	0	0	0	490
10	0	0	0	0	601
11	0	0	0	0	561
12	0	0	0	0	497
13	0	0	0	0	483
14	0	0	0	0	664
15	0	0	0	0	522
0	0	0	0	0	459
1	0	0	0	0	501
2	0	0	0	0	453
3	0	0	0	0	595
4	0	0	0	0	469
5	0	0	0	0	438
6	0	0	0	0	566
7	0	0	0	0	463
8	0	0	0	0	558
9	0	0	0	0	432
10	0	0	0	0	538
11	0	0	0	0	479
12	0	0	0	0	536
13	0	0	0	0	470
14	0	0	0	0	578
15	0	0	0	0	499
0	0	0	0	0	486
1	0	0	0	0	491
2	0	0	0	0	507
3	0	0	0	0	539
4	0	0	0	0	531
5	0	0	0	0	480
6	0	0	0	0	471
7	0	0	0	0	474
8	0	0	0	0	493
9	0	0	0	0	477
10	0	0	0	0	477
11	0	0	0	0	520
12	0	0	0	0	494
13	0	0	0	0	533
14	0	0	0	0	481
15	0	0	0	0	525
0	0	0	0	0	511
1	0	0	0	0	528
2	0	0	0	0	494
3	0	0	0	0	524
4	0	0	0	0	506
5	0	0	0	0	517
6	0	0	0	0	572
7	0	0	0	0	588
8	0	0	0	0	451
9	0	0	0	0	495
10	0	0	0	0	506
11	0	0	0	0	508
12	0	0	0	0	514
13	0	0	0	0	479
14	0	0	0	0	478
15	0	0	0	0	567
0	0	0	0	0	465
1	0	0	0	0	556
2	0	0	0	0	542
3	0	0	0	0	457
4	0	0	0	0	502
5	0	0	0	0	457
6	0	0	0	0	492
7	0	0	0	0	502
8	0	0	0	0	512
9	0	0	0	0	481
10	0	0	0	0	476
11	0	0	0	0	492
12	0	0	0	0	526
13	0	0	0	0	522
14	0	0	0	0	477
15	0	0	0	0	502
0	0	0	0	0	539
1	0	0	0	0	503
2	0	0	0	0	513
3	0	0	0	0	516
4	0	0	0	0	501
5	0	0	0	0	452
6	0	0	0	0	516
7	0	0	0	0	487
8	0	0	0	0	496
9	0	0	0	0	505
10	0	0	0	0	510
11	0	0	0	0	621
12	0	0	0	0	528
13	0	0	0	0	530
14	0	0	0	0	467
15	0	0	0	0	519
0	0	0	0	0	467
1	0	0	0	0	602
2	0	0	0	0	448
3	0	0	0	0	539
4	0	0	0	0	565
5	0	0	0	0	441
6	0	0	0	0	517
7	0	0	0	0	560
8	0	0	0	0	504
9	0	0	0	0	499
10	0	0	0	0	511
11	0	0	0	0	548
12	0	0	0	0	495
13	0	0	0	0	558
14	0	0	0	0	497
15	0	0	0	0	506
0	0	0	0	0	580
1	0	0	0	0	471
2	0	0	0	0	536
3	0	0	0	0	543
4	0	0	0	0	499
5	0	0	0	0	547
6	0	0	0	0	509
7	0	0	0	0	525
8	0	0	0	0	463
9	0	0	0	0	486
10	0	0	0	0	505
11	0	0	0	0	479
12	0	0	0	0	525
13	0	0	0	0	492
14	0	0	0	0	479
15	0	0	0	0	472
0	0	0	0	0	571
1	0	0	0	0	491
2	0	0	0	0	491
3	0	0	0	0	594
4	0	0	0	0	476
5	0	0	0	0	528
6	0	0	0	0	604
7	0	0	0	0	535
8	0	0	0	0	550
9	0	0	0	0	534
10	0	0	0	0	504
11	0	0	0	0	536
12	0	0	0	0	593
13	0	0	0	0	505
14	0	0	0	0	486
15	0	0	0	0	564
0	0	0	0	0	462
1	0	0	0	0	514
2	0	0	0	0	519
3	0	0	0	0	509
4	0	0	0	0	497
5	0	0	0	0	441
6	0	0	0	0	566
7	0	0	0	0	470
8	0	0	0	0	470
9	0	0	0	0	492
10	0	0	0	0	507
11	0	0	0	0	458
12	0	0	0	0	608
13	0	0	0	0	566
14	0	0	0	0	473
15	0	0	0	0	519
0	0	0	0	0	524
1	0	0	0	0	501
2	0	0	0	0	564
3	0	0	0	0	501
4	0	0	0	0	551
5	0	0	0	0	533
6	0	0	0	0	478
7	0	0	0	0	535
8	0	0	0	0	511
9	0	0	0	0	531
10	0	0	0	0	459
11	0	0	0	0	514
12	0	0	0	0	532
13	0	0	0	0	502
14	0	0	0	0	446
15	0	0	0	0	525
0	0	0	0	0	485
1	0	0	0	0	471
2	0	0	0	0	545
3	0	0	0	0	543
4	0	0	0	0	514
5	0	0	0	0	497
6	0	0	0	0	516
7	0	0	0	0	499
8	0	0	0	0	556
9	0	0	0	0	507
10	0	0	0	0	524
11	0	0	0	0	513
12	0	0	0	0	489
13	0	0	0	0	453
14	0	0	0	0	607
15	0	0	0	0	510
0	0	0	0	0	474
1	0	0	0	0	503
2	0	0	0	0	521
3	0	0	0	0	450
4	0	0	0	0	498
5	0	0	0	0	494
6	0	0	0	0	527
7	0	0	0	0	551
8	0	0	0	0	482
9	0	0	0	0	477
10	0	0	0	0	524
11	0	0	0	0	544
12	0	0	0	0	493
13	0	0	0	0	531
14	0	0	0	0	614
15	0	0	0	0	572
0	0	0	0	0	487
1	0	0	0	0	495
2	0	0	0	0	524
3	0	0	0	0	552
4	0	0	0	0	513
5	0	0	0	0	518
6	0	0	0	0	498
7	0	0	0	0	516
8	0	0	0	0	459
9	0	0	0	0	504
10	0	0	0	0	471
11	0	0	0	0	524
12	0	0	0	0	497
13	0	0	0	0	502
14	0	0	0	0	545
15	0	0	0	0	506
0	0	0	0	0	503
1	0	0	0	0	531
2	0	0	0	0	600
3	0	0	0	0	554
4	0	0	0	0	465
5	0	0	0	0	518
6	0	0	0	0	498
7	0	0	0	0	479
8	0	0	0	0	455
9	0	0	0	0	480
10	0	0	0	0	476
11	0	0	0	0	472
12	0	0	0	0	505
13	0	0	0	0	524
14	0	0	0	0	509
15	0	0	0	0	544
0	0	0	0	0	504
1	0	0	0	0	535
2	0	0	0	0	511
3	0	0	0	0	543
4	0	0	0	0	500
5	0	0	0	0	510
6	0	0	0	0	494
7	0	0	0	0	543
8	0	0	0	0	475
9	0	0	0	0	488
10	0	0	0	0	511
11	0	0	0	0	453
12	0	0	0	0	478
13	0	0	0	0	468
14	0	0	0	0	485
15	0	0	0	0	533
0	0	0	0	0	521
1	0	0	0	0	550
2	0	0	0	0	542
3	0	0	0	0	515
4	0	0	0	0	508
5	0	0	0	0	545
6	0	0	0	0	474
7	0	0	0	0	491
8	0	0	0	0	495
9	0	0	0	0	527
10	0	0	0	0	531
11	0	0	0	0	499
12	0	0	0	0	499
13	0	0	0	0	475
14	0	0	0	0	539
15	0	0	0	0	522
0	0	0	0	0	513
1	0	0	0	0	502
2	0	0	0	0	542
3	0	0	0	0	508
4	0	0	0	0	491
5	0	0	0	0	498
6	0	0	0	0	510
7	0	0	0	0	516
8	0	0	0	0	519
9	0	0	0	0	535
10	0	0	0	0	500
11	0	0	0	0	504
12	0	0	0	0	544
13	0	0	0	0	510
14	0	0	0	0	524
15	0	0	0	0	527
0	0	0	0	0	487
1	0	0	0	0	510
2	0	0	0	0	526
3	0	0	0	0	521
4	0	0	0	0	519
5	0	0	0	0	532
6	0	0	0	0	539
7	0	0	0	0	529
8	0	0	0	0	519
9	0	0	0	0	506
10	0	0	0	0	472
11	0	0	0	0	516
12	0	0	0	0	500
13	0	0	0	0	507
14	0	0	0	0	534
15	0	0	0	0	504
0	0	0	0	0	534
1	0	0	0	0	489
2	0	0	0	0	527
3	0	0	0	0	494
4	0	0	0	0	509
5	0	0	0	0	496
6	0	0	0	0	503
7	0	0	0	0	511
8	0	0	0	0	517
9	0	0	0	0	512
10	0	0	0	0	492
11	0	0	0	0	540
12	0	0	0	0	532
13	0	0	0	0	482
14	0	0	0	0	520
15	0	0	0	0	536
0	0	0	0	0	527
1	0	0	0	0	483
2	0	0	0	0	563
3	0	0	0	0	577
4	0	0	0	0	524
5	0	0	0	0	520
6	0	0	0	0	480
7	0	0	0	0	585
8	0	0	0	0	487
9	0	0	0	0	503
10	0	0	0	0	469
11	0	0	0	0	474
12	0	0	0	0	580
13	0	0	0	0	372
14	0	0	0	0	612
15	0	0	0	0	478
0	0	0	0	0	529
1	0	0	0	0	372
2	0	0	0	0	595
3	0	0	0	0	613
4	0	0	0	0	647
5	0	0	0	0	711
6	0	0	0	0	0
7	0	0	0	0	1022
8	0	0	0	0	187
9	0	0	0	0	539
10	0	0	0	0	612
11	0	0	0	0	220
12	0	0	0	0	523
13	0	0	0	0	217
14	0	0	0	0	860
15	0	0	0	0	133
0	0	0	0	0	943
1	0	0	0	0	0
2	0	0	0	0	851
3	0	0	0	0	44
4	0	0	0	0	378
5	0	0	0	0	862
6	0	0	0	0	348
7	0	0	0	0	754
8	0	0	0	0	415
9	0	0	0	0	508
10	0	0	0	0	676
11	0	0	0	0	195
12	0	0	0	0	589
13	0	0	0	0	672
14	0	0	0	0	16
15	0	0	0	0	591
0	0	0	0	0	519
1	0	0	0	0	486
2	0	0	0	0	544
3	0	0	0	0	872
4	0	0	0	0	601
5	0	0	0	0	532
6	0	0	0	0	615
7	0	0	0	0	437
8	0	0	0	0	630
9	0	0	0	0	481
10	0	0	0	0	557
11	0	0	0	0	477
12	0	0	0	0	513
13	0	0	0	0	433
14	0	0	0	0	484
15	0	0	0	0	556
0	0	0	0	0	551
1	0	0	0	0	429
2	0	0	0	0	576
3	0	0	0	0	501
4	0	0	0	0	528
5	0	0	0	0	560
6	0	0	0	0	479
7	0	0	0	0	583
8	0	0	0	0	504
9	0	0	0	0	452
10	0	0	0	0	586
11	0	0	0	0	452
12	0	0	0	0	532
13	0	0	0	0	743
14	0	0	0	0	484
15	0	0	0	0	531
0	0	0	0	0	574
1	0	0	0	0	548
2	0	0	0	0	508
3	0	0	0	0	465
4	0	0	0	0	512
5	0	0	0	0	372
6	0	0	0	0	563
7	0	0	0	0	455
8	0	0	0	0	548
9	0	0	0	0	452
10	0	0	0	0	596
11	0	0	0	0	473
12	0	0	0	0	486
13	0	0	0	0	548
14	0	0	0	0	586
15	0	0	0	0	463
0	0	0	0	0	447
1	0	0	0	0	463
2	0	0	0	0	541
3	0	0	0	0	475
4	0	0	0	0	480
5	0	0	0	0	488
6	0	0	0	0	480
7	0	0	0	0	514
8	0	0	0	0	477
9	0	0	0	0	524
10	0	0	0	0	464
11	0	0	0	0	485
12	0	0	0	0	411
13	0	0	0	0	485
14	0	0	0	0	427
15	0	0	0	0	498
0	0	0	0	0	494
1	0	0	0	0	464
2	0	0	0	0	452
3	0	0	0	0	620
4	0	0	0	0	546
5	0	0	0	0	616
6	0	0	0	0	447
7	0	0	0	0	396
8	0	0	0	0	598
9	0	0	0	0	511
10	0	0	0	0	470
11	0	0	0	0	523
12	0	0	0	0	522
13	0	0	0	0	515
14	0	0	0	0	504
15	0	0	0	0	487
0	0	0	0	0	513
1	0	0	0	0	538
2	0	0	0	0	452
3	0	0	0	0	526
4	0	0	0	0	578
5	0	0	0	0	606
6	0	0	0	0	503
7	0	0	0	0	557
8	0	0	0	0	515
9	0	0	0	0	512
10	0	0	0	0	464
11	0	0	0	0	480
12	0	0	0	0	570
13	0	0	0	0	609
14	0	0	0	0	491
15	0	0	0	0	505
0	0	0	0	0	496
1	0	0	0	0	564
2	0	0	0	0	532
3	0	0	0	0	479
4	0	0	0	0	561
5	0	0	0	0	503
6	0	0	0	0	564
7	0	0	0	0	487
8	0	0	0	0	524
9	0	0	0	0	488
10	0	0	0	0	480
11	0	0	0	0	555
12	0	0	0	0	516
13	0	0	0	0	539
14	0	0	0	0	526
15	0	0	0	0	504
0	0	0	0	0	522
1	0	0	0	0	545
2	0	0	0	0	495
3	0	0	0	0	539
4	0	0	0	0	448
5	0	0	0	0	485
6	0	0	0	0	509
7	0	0	0	0	454
8	0	0	0	0	521
9	0	0	0	0	536
10	0	0	0	0	516
11	0	0	0	0	588
12	0	0	0	0	542
13	0	0	0	0	526
14	0	0	0	0	405
15	0	0	0	0	508
0	0	0	0	0	466
1	0	0	0	0	470
2	0	0	0	0	475
3	0	0	0	0	489
4	0	0	0	0	521
5	0	0	0	0	530
6	0	0	0	0	470
7	0	0	0	0	506
8	0	0	0	0	519
9	0	0	0	0	563
10	0	0	0	0	513
11	0	0	0	0	527
12	0	0	0	0	583
13	0	0	0	0	523
14	0	0	0	0	535
15	0	0	0	0	486
0	0	0	0	0	484
1	0	0	0	0	503
2	0	0	0	0	518
3	0	0	0	0	514
4	0	0	0	0	504
5	0	0	0	0	494
6	0	0	0	0	480
7	0	0	0	0	476
8	0	0	0	0	537
9	0	0	0	0	482
10	0	0	0	0	515
11	0	0	0	0	511
12	0	0	0	0	517
13	0	0	0	0	533
14	0	0	0	0	486
15	0	0	0	0	519
0	0	0	0	0	492
1	0	0	0	0	477
2	0	0	0	0	574
3	0	0	0	0	498
4	0	0	0	0	585
5	0	0	0	0	508
6	0	0	0	0	509
7	0	0	0	0	553
8	0	0	0	0	587
9	0	0	0	0	529
10	0	0	0	0	511
11	0	0	0	0	496
12	0	0	0	0	528
13	0	0	0	0	470
14	0	0	0	0	523
15	0	0	0	0	488
0	0	0	0	0	516
1	0	0	0	0	537
2	0	0	0	0	541
3	0	0	0	0	571
4	0	0	0	0	493
5	0	0	0	0	502
6	0	0	0	0	583
7	0	0	0	0	496
8	0	0	0	0	509
9	0	0	0	0	501
10	0	0	0	0	509
11	0	0	0	0	515
12	0	0	0	0	502
13	0	0	0	0	549
14	0	0	0	0	524
15	0	0	0	0	508
0	0	0	0	0	540
1	0	0	0	0	472
2	0	0	0	0	523
3	0	0	0	0	455
4	0	0	0	0	498
5	0	0	0	0	475
6	0	0	0	0	466
7	0	0	0	0	518
8	0	0	0	0	530
9	0	0	0	0	502
10	0	0	0	0	518
11	0	0	0	0	561
12	0	0	0	0	526
13	0	0	0	0	564
14	0	0	0	0	500
15	0	0	0	0	517
0	0	0	0	0	490
1	0	0	0	0	511
2	0	0	0	0	482
3	0	0	0	0	585
4	0	0	0	0	490
5	0	0	0	0	491
6	0	0	0	0	474
7	0	0	0	0	551
8	0	0	0	0	500
9	0	0	0	0	480
10	0	0	0	0	524
11	0	0	0	0	471
12	0	0	0	0	540
13	0	0	0	0	571
14	0	0	0	0	503
15	0	0	0	0	518
0	0	0	0	0	481
1	0	0	0	0	483
2	0	0	0	0	533
3	0	0	0	0	533
4	0	0	0	0	492
5	0	0	0	0	497
6	0	0	0	0	495
7	0	0	0	0	532
8	0	0	0	0	509
9	0	0	0	0	519
10	0	0	0	0	480
11	0	0	0	0	518
12	0	0	0	0	495
13	0	0	0	0	507
14	0	0	0	0	505
15	0	0	0	0	531
0	0	0	0	0	525
1	0	0	0	0	465
2	0	0	0	0	526
3	0	0	0	0	487
4	0	0	0	0	488
5	0	0	0	0	514
6	0	0	0	0	516
7	0	0	0	0	532
8	0	0	0	0	514
9	0	0	0	0	497
10	0	0	0	0	483
11	0	0	0	0	530
12	0	0	0	0	510
13	0	0	0	0	499
14	0	0	0	0	492
15	0	0	0	0	499
0	0	0	0	0	511
1	0	0	0	0	519
2	0	0	0	0	529
3	0	0	0	0	486
4	0	0	0	0	488
5	0	0	0	0	506
6	0	0	0	0	541
7	0	0	0	0	478
8	0	0	0	0	514
9	0	0	0	0	521
10	0	0	0	0	494
11	0	0	0	0	476
12	0	0	0	0	498
13	0	0	0	0	570
14	0	0	0	0	495
15	0	0	0	0	556
0	0	0	0	0	487
1	0	0	0	0	513
2	0	0	0	0	519
3	0	0	0	0	502
4	0	0	0	0	533
5	0	0	0	0	476
6	0	0	0	0	504
7	0	0	0	0	532
8	0	0	0	0	507
9	0	0	0	0	563
10	0	0	0	0	524
11	0	0	0	0	505
12	0	0	0	0	500
13	0	0	0	0	503
14	0	0	0	0	565
15	0	0	0	0	505
0	0	0	0	0	476
1	0	0	0	0	540
2	0	0	0	0	510
3	0	0	0	0	481
4	0	0	0	0	499
5	0	0	0	0	593
6	0	0	0	0	524
7	0	0	0	0	486
8	0	0	0	0	526
9	0	0	0	0	501
10	0	0	0	0	526
11	0	0	0	0	521
12	0	0	0	0	520
13	0	0	0	0	503
14	0	0	0	0	514
15	0	0	0	0	505
0	0	0	0	0	527
1	0	0	0	0	531
2	0	0	0	0	527
3	0	0	0	0	501
4	0	0	0	0	524
5	0	0	0	0	500
6	0	0	0	0	520
7	0	0	0	0	487
8	0	0	0	0	514
9	0	0	0	0	505
10	0	0	0	0	521
11	0	0	0	0	498
12	0	0	0	0	537
13	0	0	0	0	527
14	0	0	0	0	499
15	0	0	0	0	510
0	0	0	0	0	588
1	0	0	0	0	473
2	0	0	0	0	491
3	0	0	0	0	546
4	0	0	0	0	526
5	0	0	0	0	509
6	0	0	0	0	536
7	0	0	0	0	481
8	0	0	0	0	529
9	0	0	0	0	519
10	0	0	0	0	508
11	0	0	0	0	509
12	0	0	0	0	506
13	0	0	0	0	511
14	0	0	0	0	514
15	0	0	0	0	517
0	0	0	0	0	541
1	0	0	0	0	501
2	0	0	0	0	513
3	0	0	0	0	520
4	0	0	0	0	531
5	0	0	0	0	508
6	0	0	0	0	504
7	0	0	0	0	524
8	0	0	0	0	510
9	0	0	0	0	534
10	0	0	0	0	499
11	0	0	0	0	449
12	0	0	0	0	540
13	0	0	0	0	496
14	0	0	0	0	555
15	0	0	0	0	550
0	0	0	0	0	529
1	0	0	0	0	531
2	0	0	0	0	523
3	0	0	0	0	523
4	0	0	0	0	505
5	0	0	0	0	507
6	0	0	0	0	500
7	0	0	0	0	531
8	0	0	0	0	550
9	0	0	0	0	522
10	0	0	0	0	479
11	0	0	0	0	529
12	0	0	0	0	560
13	0	0	0	0	495
14	0	0	0	0	491
15	0	0	0	0	531
0	0	0	0	0	465
1	0	0	0	0	526
2	0	0	0	0	526
3	0	0	0	0	498
4	0	0	0	0	588
5	0	0	0	0	502
6	0	0	0	0	487
7	0	0	0	0	508
8	0	0	0	0	483
9	0	0	0	0	528
10	0	0	0	0	481
11	0	0	0	0	523
12	0	0	0	0	561
13	0	0	0	0	487
14	0	0	0	0	521
15	0	0	0	0	508
0	0	0	0	0	494
1	0	0	0	0	543
2	0	0	0	0	567
3	0	0	0	0	550
4	0	0	0	0	474
5	0	0	0	0	483
6	0	0	0	0	544
7	0	0	0	0	540
8	0	0	0	0	505
9	0	0	0	0	557
10	0	0	0	0	564
11	0	0	0	0	518
12	0	0	0	0	522
13	0	0	0	0	504
14	0	0	0	0	446
15	0	0	0	0	568
0	0	0	0	0	662
1	0	0	0	0	378
2	0	0	0	0	494
3	0	0	0	0	462
4	0	0	0	0	630
5	0	0	0	0	556
6	0	0	0	0	588
7	0	0	0	0	610
8	0	0	0	0	48
9	0	0	0	0	990
10	0	0	0	0	0
11	0	0	0	0	1022
12	0	0	0	0	305
13	0	0	0	0	516
14	0	0	0	0	305
15	0	0	0	0	749
0	0	0	0	0	0
1	0	0	0	0	752
2	0	0	0	0	271
3	0	0	0	0	662
4	0	0	0	0	449
5	0	0	0	0	770
6	0	0	0	0	338
7	0	0	0	0	650
8	0	0	0	0	424
9	0	0	0	0	348
10	0	0	0	0	786
11	0	0	0	0	584
12	0	0	0	0	566
13	0	0	0	0	432
14	0	0	0	0	487
15	0	0	0	0	461
0	0	0	0	0	464
1	0	0	0	0	500
2	0	0	0	0	438
3	0	0	0	0	472
4	0	0	0	0	820
5	0	0	0	0	957
6	0	0	0	0	292
7	0	0	0	0	375
8	0	0	0	0	463
9	0	0	0	0	684
10	0	0	0	0	547
11	0	0	0	0	305
12	0	0	0	0	345
13	0	0	0	0	710
14	0	0	0	0	395
15	0	0	0	0	458
0	0	0	0	0	436
1	0	0	0	0	536
2	0	0	0	0	515
3	0	0	0	0	393
4	0	0	0	0	464
5	0	0	0	0	588
6	0	0	0	0	406
7	0	0	0	0	466
8	0	0	0	0	434
9	0	0	0	0	353
10	0	0	0	0	518
11	0	0	0	0	516
12	0	0	0	0	442
13	0	0	0	0	553
14	0	0	0	0	483
15	0	0	0	0	463
0	0	0	0	0	564
1	0	0	0	0	679
2	0	0	0	0	541
3	0	0	0	0	465
4	0	0	0	0	582
5	0	0	0	0	463
6	0	0	0	0	535
7	0	0	0	0	428
8	0	0	0	0	488
9	0	0	0	0	662
10	0	0	0	0	518
11	0	0	0	0	470
12	0	0	0	0	511
13	0	0	0	0	480
14	0	0	0	0	535
15	0	0	0	0	469
0	0	0	0	0	454
1	0	0	0	0	611
2	0	0	0	0	510
3	0	0	0	0	435
4	0	0	0	0	485
5	0	0	0	0	579
6	0	0	0	0	496
7	0	0	0	0	462
8	0	0	0	0	503
9	0	0	0	0	529
10	0	0	0	0	561
11	0	0	0	0	517
12	0	0	0	0	546
13	0	0	0	0	571
14	0	0	0	0	473
15	0	0	0	0	515
0	0	0	0	0	492
1	0	0	0	0	524
2	0	0	0	0	554
3	0	0	0	0	460
4	0	0	0	0	493
5	0	0	0	0	506
6	0	0	0	0	580
7	0	0	0	0	486
8	0	0	0	0	571
9	0	0	0	0	517
10	0	0	0	0	529
11	0	0	0	0	527
12	0	0	0	0	591
13	0	0	0	0	464
14	0	0	0	0	520
15	0	0	0	0	555
0	0	0	0	0	512
1	0	0	0	0	524
2	0	0	0	0	492
3	0	0	0	0	525
4	0	0	0	0	475
5	0	0	0	0	529
6	0	0	0	0	525
7	0	0	0	0	501
8	0	0	0	0	536
9	0	0	0	0	526
10	0	0	0	0	532
11	0	0	0	0	497
12	0	0	0	0	493
13	0	0	0	0	595
14	0	0	0	0	587
15	0	0	0	0	500
0	0	0	0	0	494
1	0	0	0	0	531
2	0	0	0	0	483
3	0	0	0	0	526
4	0	0	0	0	488
5	0	0	0	0	538
6	0	0	0	0	525
7	0	0	0	0	538
8	0	0	0	0	538
9	0	0	0	0	499
10	0	0	0	0	537
11	0	0	0	0	496
12	0	0	0	0	505
13	0	0	0	0	524
14	0	0	0	0	547
15	0	0	0	0	479
0	0	0	0	0	499
1	0	0	0	0	510
2	0	0	0	0	493
3	0	0	0	0	479
4	0	0	0	0	541
5	0	0	0	0	512
6	0	0	0	0	490
7	0	0	0	0	498
8	0	0	0	0	504
9	0	0	0	0	541
10	0	0	0	0	534
11	0	0	0	0	513
12	0	0	0	0	474
13	0	0	0	0	519
14	0	0	0	0	496
15	0	0	0	0	507
0	0	0	0	0	529
1	0	0	0	0	495
2	0	0	0	0	491
3	0	0	0	0	523
4	0	0	0	0	504
5	0	0	0	0	532
6	0	0	0	0	504
7	0	0	0	0	515
8	0	0	0	0	510
9	0	0	0	0	499
10	0	0	0	0	514
11	0	0	0	0	527
12	0	0	0	0	512
13	0	0	0	0	519
14	0	0	0	0	502
15	0	0	0	0	514
0	0	0	0	0	541
1	0	0	0	0	498
2	0	0	0	0	506
3	0	0	0	0	539
4	0	0	0	0	536
5	0	0	0	0	515
6	0	0	0	0	500
7	0	0	0	0	516
8	0	0	0	0	527
9	0	0	0	0	506
10	0	0	0	0	503
11	0	0	0	0	507
12	0	0	0	0	495
13	0	0	0	0	493
14	0	0	0	0	521
15	0	0	0	0	495
0	0	0	0	0	510
1	0	0	0	0	510
2	0	0	0	0	506
3	0	0	0	0	493
4	0	0	0	0	517
5	0	0	0	0	520
6	0	0	0	0	504
7	0	0	0	0	509
8	0	0	0	0	518
9	0	0	0	0	519
10	0	0	0	0	553
11	0	0	0	0	502
12	0	0	0	0	519
13	0	0	0	0	503
14	0	0	0	0	514
15	0	0	0	0	508
0	0	0	0	0	515
1	0	0	0	0	525
2	0	0	0	0	505
3	0	0	0	0	491
4	0	0	0	0	508
5	0	0	0	0	523
6	0	0	0	0	517
7	0	0	0	0	499
8	0	0	0	0	507
9	0	0	0	0	512
10	0	0	0	0	529
11	0	0	0	0	524
12	0	0	0	0	518
13	0	0	0	0	519
14	0	0	0	0	530
15	0	0	0	0	515
0	0	0	0	0	503
1	0	0	0	0	523
2	0	0	0	0	513
3	0	0	0	0	510
4	0	0	0	0	505
5	0	0	0	0	516
6	0	0	0	0	526
7	0	0	0	0	504
8	0	0	0	0	500
9	0	0	0	0	515
10	0	0	0	0	537
11	0	0	0	0	503
12	0	0	0	0	514
13	0	0	0	0	509
14	0	0	0	0	531
15	0	0	0	0	542
0	0	0	0	0	503
1	0	0	0	0	535
2	0	0	0	0	521
3	0	0	0	0	513
4	0	0	0	0	517
5	0	0	0	0	512
6	0	0	0	0	480
7	0	0	0	0	505
8	0	0	0	0	510
9	0	0	0	0	502
10	0	0	0	0	516
11	0	0	0	0	512
12	0	0	0	0	527
13	0	0	0	0	493
14	0	0	0	0	528
15	0	0	0	0	509
0	0	0	0	0	504
1	0	0	0	0	509
2	0	0	0	0	514
3	0	0	0	0	513
4	0	0	0	0	496
5	0	0	0	0	514
6	0	0	0	0	503
7	0	0	0	0	516
8	0	0	0	0	519
9	0	0	0	0	543
10	0	0	0	0	493
11	0	0	0	0	518
12	0	0	0	0	518
13	0	0	0	0	519
14	0	0	0	0	512
15	0	0	0	0	519
0	0	0	0	0	508
1	0	0	0	0	481
2	0	0	0	0	512
3	0	0	0	0	541
4	0	0	0	0	543
5	0	0	0	0	504
6	0	0	0	0	485
7	0	0	0	0	487
8	0	0	0	0	507
9	0	0	0	0	572
10	0	0	0	0	504
11	0	0	0	0	521
12	0	0	0	0	505
13	0	0	0	0	530
14	0	0	0	0	502
15	0	0	0	0	525
0	0	0	0	0	513
1	0	0	0	0	510
2	0	0	0	0	506
3	0	0	0	0	501
4	0	0	0	0	522
5	0	0	0	0	507
6	0	0	0	0	503
7	0	0	0	0	510
8	0	0	0	0	525
9	0	0	0	0	523
10	0	0	0	0	503
11	0	0	0	0	511
12	0	0	0	0	526
13	0	0	0	0	506
14	0	0	0	0	528
15	0	0	0	0	528
0	0	0	0	0	523
1	0	0	0	0	507
2	0	0	0	0	539
3	0	0	0	0	515
4	0	0	0	0	525
5	0	0	0	0	515
6	0	0	0	0	534
7	0	0	0	0	512
8	0	0	0	0	506
9	0	0	0	0	508
10	0	0	0	0	500
11	0	0	0	0	512
12	0	0	0	0	564
13	0	0	0	0	503
14	0	0	0	0	514
15	0	0	0	0	505
0	0	0	0	0	508
1	0	0	0	0	509
2	0	0	0	0	509
3	0	0	0	0	540
4	0	0	0	0	517
5	0	0	0	0	527
6	0	0	0	0	526
7	0	0	0	0	497
8	0	0	0	0	516
9	0	0	0	0	544
10	0	0	0	0	513
11	0	0	0	0	514
12	0	0	0	0	518
13	0	0	0	0	506
14	0	0	0	0	521
15	0	0	0	0	519
0	0	0	0	0	543
1	0	0	0	0	516
2	0	0	0	0	496
3	0	0	0	0	559
4	0	0	0	0	511
5	0	0	0	0	516
6	0	0	0	0	521
7	0	0	0	0	513
8	0	0	0	0	515
9	0	0	0	0	516
10	0	0	0	0	539
11	0	0	0	0	488
12	0	0	0	0	525
13	0	0	0	0	516
14	0	0	0	0	511
15	0	0	0	0	515
0	0	0	0	0	508
1	0	0	0	0	512
2	0	0	0	0	512
3	0	0	0	0	488
4	0	0	0	0	509
5	0	0	0	0	509
6	0	0	0	0	498
7	0	0	0	0	492
8	0	0	0	0	532
9	0	0	0	0	528
10	0	0	0	0	533
11	0	0	0	0	509
12	0	0	0	0	501
13	0	0	0	0	555
14	0	0	0	0	516
15	0	0	0	0	514
0	0	0	0	0	519
1	0	0	0	0	508
2	0	0	0	0	520
3	0	0	0	0	523
4	0	0	0	0	510
5	0	0	0	0	523
6	0	0	0	0	509
7	0	0	0	0	519
8	0	0	0	0	498
9	0	0	0	0	515
10	0	0	0	0	466
11	0	0	0	0	517
12	0	0	0	0	517
13	0	0	0	0	510
14	0	0	0	0	550
15	0	0	0	0	543
0	0	0	0	0	512
1	0	0	0	0	522
2	0	0	0	0	567
3	0	0	0	0	460
4	0	0	0	0	540
5	0	0	0	0	543
6	0	0	0	0	471
7	0	0	0	0	521
8	0	0	0	0	484
9	0	0	0	0	504
10	0	0	0	0	505
11	0	0	0	0	458
12	0	0	0	0	558
13	0	0	0	0	518
14	0	0	0	0	496
15	0	0	0	0	531
0	0	0	0	0	528
1	0	0	0	0	436
2	0	0	0	0	746
3	0	0	0	0	386
4	0	0	0	0	424
5	0	0	0	0	708
6	0	0	0	0	433
7	0	0	0	0	377
8	0	0	0	0	765
9	0	0	0	0	409
10	0	0	0	0	703
11	0	0	0	0	239
12	0	0	0	0	607
13	0	0	0	0	447
14	0	0	0	0	285
15	0	0	0	0	621
0	0	0	0	0	214
1	0	0	0	0	749
2	0	0	0	0	738
3	0	0	0	0	236
4	0	0	0	0	520
5	0	0	0	0	519
6	0	0	0	0	804
7	0	0	0	0	111
8	0	0	0	0	464
9	0	0	0	0	489
10	0	0	0	0	499
11	0	0	0	0	427
12	0	0	0	0	468
13	0	0	0	0	434
14	0	0	0	0	527
15	0	0	0	0	401
0	0	0	0	0	829
1	0	0	0	0	541
2	0	0	0	0	569
3	0	0	0	0	551
4	0	0	0	0	521
5	0	0	0	0	721
6	0	0	0	0	1020
7	0	0	0	0	816
8	0	0	0	0	543
9	0	0	0	0	446
10	0	0	0	0	328
11	0	0	0	0	439
12	0	0	0	0	862
13	0	0	0	0	694
14	0	0	0	0	483
15	0	0	0	0	594
0	0	0	0	0	411
1	0	0	0	0	582
2	0	0	0	0	833
3	0	0	0	0	611
4	0	0	0	0	526
5	0	0	0	0	570
6	0	0	0	0	564
7	0	0	0	0	446
8	0	0	0	0	476
9	0	0	0	0	267
10	0	0	0	0	424
11	0	0	0	0	489
12	0	0	0	0	528
13	0	0	0	0	553
14	0	0	0	0	371
15	0	0	0	0	400
0	0	0	0	0	433
1	0	0	0	0	524
2	0	0	0	0	435
3	0	0	0	0	576
4	0	0	0	0	511
5	0	0	0	0	450
6	0	0	0	0	492
7	0	0	0	0	330
8	0	0	0	0	733
9	0	0	0	0	468
10	0	0	0	0	394
11	0	0	0	0	477
12	0	0	0	0	455
13	0	0	0	0	399
14	0	0	0	0	536
15	0	0	0	0	707
0	0	0	0	0	478
1	0	0	0	0	384
2	0	0	0	0	476
3	0	0	0	0	49
4	0	0	0	0	487
5	0	0	0	0	560
6	0	0	0	0	613
7	0	0	0	0	532
8	0	0	0	0	273
9	0	0	0	0	519
10	0	0	0	0	275
11	0	0	0	0	443
12	0	0	0	0	723
13	0	0	0	0	473
14	0	0	0	0	611
15	0	0	0	0	548
0	0	0	0	0	480
1	0	0	0	0	706
2	0	0	0	0	501
3	0	0	0	0	541
4	0	0	0	0	359
5	0	0	0	0	496
6	0	0	0	0	494
7	0	0	0	0	508
8	0	0	0	0	645
9	0	0	0	0	460
10	0	0	0	0	520
11	0	0	0	0	610
12	0	0	0	0	435
13	0	0	0	0	499
14	0	0	0	0	528
15	0	0	0	0	517
0	0	0	0	0	475
1	0	0	0	0	524
2	0	0	0	0	511
3	0	0	0	0	514
4	0	0	0	0	483
5	0	0	0	0	591
6	0	0	0	0	510
7	0	0	0	0	516
8	0	0	0	0	557
9	0	0	0	0	565
10	0	0	0	0	500
11	0	0	0	0	508
12	0	0	0	0	502
13	0	0	0	0	502
14	0	0	0	0	471
15	0	0	0	0	561
0	0	0	0	0	499
1	0	0	0	0	487
2	0	0	0	0	532
3	0	0	0	0	498
4	0	0	0	0	542
5	0	0	0	0	522
6	0	0	0	0	679
7	0	0	0	0	476
8	0	0	0	0	512
9	0	0	0	0	487
10	0	0	0	0	522
11	0	0	0	0	514
12	0	0	0	0	507
13	0	0	0	0	481
14	0	0	0	0	523
15	0	0	0	0	515
0	0	0	0	0	459
1	0	0	0	0	519
2	0	0	0	0	536
3	0	0	0	0	483
4	0	0	0	0	515
5	0	0	0	0	494
6	0	0	0	0	594
7	0	0	0	0	471
8	0	0	0	0	499
9	0	0	0	0	529
10	0	0	0	0	518
11	0	0	0	0	506
12	0	0	0	0	454
13	0	0	0	0	548
14	0	0	0	0	510
15	0	0	0	0	513
0	0	0	0	0	548
1	0	0	0	0	497
2	0	0	0	0	511
3	0	0	0	0	502
4	0	0	0	0	530
5	0	0	0	0	489
6	0	0	0	0	574
7	0	0	0	0	495
8	0	0	0	0	518
9	0	0	0	0	578
10	0	0	0	0	531
11	0	0	0	0	523
12	0	0	0	0	503
13	0	0	0	0	587
14	0	0	0	0	494
15	0	0	0	0	515
0	0	0	0	0	508
1	0	0	0	0	507
2	0	0	0	0	497
3	0	0	0	0	507
4	0	0	0	0	476
5	0	0	0	0	529
6	0	0	0	0	507
7	0	0	0	0	540
8	0	0	0	0	477
9	0	0	0	0	522
10	0	0	0	0	523
11	0	0	0	0	492
12	0	0	0	0	516
13	0	0	0	0	516
14	0	0	0	0	510
15	0	0	0	0	531
0	0	0	0	0	459
1	0	0	0	0	519
2	0	0	0	0	494
3	0	0	0	0	480
4	0	0	0	0	504
5	0	0	0	0	551
6	0	0	0	0	494
7	0	0	0	0	467
8	0	0	0	0	514
9	0	0	0	0	526
10	0	0	0	0	606
11	0	0	0	0	476
12	0	0	0	0	574
13	0	0	0	0	504
14	0	0	0	0	547
15	0	0	0	0	532
0	0	0	0	0	525
1	0	0	0	0	487
2	0	0	0	0	502
3	0	0	0	0	521
4	0	0	0	0	479
5	0	0	0	0	542
6	0	0	0	0	506
7	0	0	0	0	572
8	0	0	0	0	483
9	0	0	0	0	502
10	0	0	0	0	487
11	0	0	0	0	526
12	0	0	0	0	505
13	0	0	0	0	477
14	0	0	0	0	601
15	0	0	0	0	516
0	0	0	0	0	503
1	0	0	0	0	518
2	0	0	0	0	562
3	0	0	0	0	502
4	0	0	0	0	503
5	0	0	0	0	479
6	0	0	0	0	544
7	0	0	0	0	513
8	0	0	0	0	511
9	0	0	0	0	512
10	0	0	0	0	514
11	0	0	0	0	533
12	0	0	0	0	519
13	0	0	0	0	510
14	0	0	0	0	523
15	0	0	0	0	530
0	0	0	0	0	564
1	0	0	0	0	499
2	0	0	0	0	561
3	0	0	0	0	547
4	0	0	0	0	503
5	0	0	0	0	542
6	0	0	0	0	519
7	0	0	0	0	500
8	0	0	0	0	484
9	0	0	0	0	531
10	0	0	0	0	530
11	0	0	0	0	513
12	0	0	0	0	530
13	0	0	0	0	508
14	0	0	0	0	484
15	0	0	0	0	536
0	0	0	0	0	504
1	0	0	0	0	556
2	0	0	0	0	529
3	0	0	0	0	493
4	0	0	0	0	524
5	0	0	0	0	503
6	0	0	0	0	515
7	0	0	0	0	504
8	0	0	0	0	502
9	0	0	0	0	555
10	0	0	0	0	486
11	0	0	0	0	526
12	0	0	0	0	515
13	0	0	0	0	543
14	0	0	0	0	503
15	0	0	0	0	545
0	0	0	0	0	517
1	0	0	0	0	525
2	0	0	0	0	516
3	0	0	0	0	544
4	0	0	0	0	505
5	0	0	0	0	510
6	0	0	0	0	488
7	0	0	0	0	527
8	0	0	0	0	524
9	0	0	0	0	487
10	0	0	0	0	504
11	0	0	0	0	491
12	0	0	0	0	546
13	0	0	0	0	521
14	0	0	0	0	521
15	0	0	0	0	519
0	0	0	0	0	491
1	0	0	0	0	503
2	0	0	0	0	517
3	0	0	0	0	522
4	0	0	0	0	493
5	0	0	0	0	504
6	0	0	0	0	492
7	0	0	0	0	472
8	0	0	0	0	546
9	0	0	0	0	489
10	0	0	0	0	517
11	0	0	0	0	499
12	0	0	0	0	580
13	0	0	0	0	499
14	0	0	0	0	485
15	0	0	0	0	476
0	0	0	0	0	507
1	0	0	0	0	526
2	0	0	0	0	496
3	0	0	0	0	531
4	0	0	0	0	488
5	0	0	0	0	510
6	0	0	0	0	513
7	0	0	0	0	552
8	0	0	0	0	518
9	0	0	0	0	498
10	0	0	0	0	532
11	0	0	0	0	504
12	0	0	0	0	532
13	0	0	0	0	519
14	0	0	0	0	485
15	0	0	0	0	537
0	0	0	0	0	541
1	0	0	0	0	506
2	0	0	0	0	515
3	0	0	0	0	513
4	0	0	0	0	510
5	0	0	0	0	522
6	0	0	0	0	509
7	0	0	0	0	504
8	0	0	0	0	552
9	0	0	0	0	492
10	0	0	0	0	493
11	0	0	0	0	491
12	0	0	0	0	500
13	0	0	0	0	527
14	0	0	0	0	484
15	0	0	0	0	462
0	0	0	0	0	513
1	0	0	0	0	469
2	0	0	0	0	505
3	0	0	0	0	481
4	0	0	0	0	513
5	0	0	0	0	524
6	0	0	0	0	515
7	0	0	0	0	505
8	0	0	0	0	504
9	0	0	0	0	535
10	0	0	0	0	501
11	0	0	0	0	508
12	0	0	0	0	540
13	0	0	0	0	517
14	0	0	0	0	524
15	0	0	0	0	505
0	0	0	0	0	496
1	0	0	0	0	488
2	0	0	0	0	528
3	0	0	0	0	497
4	0	0	0	0	510
5	0	0	0	0	485
6	0	0	0	0	502
7	0	0	0	0	520
8	0	0	0	0	511
9	0	0	0	0	504
10	0	0	0	0	542
11	0	0	0	0	490
12	0	0	0	0	494
13	0	0	0	0	504
14	0	0	0	0	512
15	0	0	0	0	510
0	0	0	0	0	498
1	0	0	0	0	509
2	0	0	0	0	516
3	0	0	0	0	492
4	0	0	0	0	506
5	0	0	0	0	503
6	0	0	0	0	501
7	0	0	0	0	509
8	0	0	0	0	526
9	0	0	0	0	502
10	0	0	0	0	503
11	0	0	0	0	508
12	0	0	0	0	518
13	0	0	0	0	505
14	0	0	0	0	509
15	0	0	0	0	521
0	0	0	0	0	494
1	0	0	0	0	524
2	0	0	0	0	504
3	0	0	0	0	504
4	0	0	0	0	517
5	0	0	0	0	504
6	0	0	0	0	510
7	0	0	0	0	534
8	0	0	0	0	508
9	0	0	0	0	497
10	0	0	0	0	503
11	0	0	0	0	504
12	0	0	0	0	516
13	0	0	0	0	496
14	0	0	0	0	506
15	0	0	0	0	528
0	0	0	0	0	514
1	0	0	0	0	510
2	0	0	0	0	494
3	0	0	0	0	499
4	0	0	0	0	498
5	0	0	0	0	527
6	0	0	0	0	494
7	0	0	0	0	500
8	0	0	0	0	527
9	0	0	0	0	499
10	0	0	0	0	492
11	0	0	0	0	542
12	0	0	0	0	513
13	0	0	0	0	434
14	0	0	0	0	556
15	0	0	0	0	561
0	0	0	0	0	494
1	0	0	0	0	517
2	0	0	0	0	519
3	0	0	0	0	444
4	0	0	0	0	516
5	0	0	0	0	590
6	0	0	0	0	487
7	0	0	0	0	463
8	0	0	0	0	492
9	0	0	0	0	547
10	0	0	0	0	608
11	0	0	0	0	450
12	0	0	0	0	502
13	0	0	0	0	496
14	0	0	0	0	524
15	0	0	0	0	530
0	0	0	0	0	468
1	0	0	0	0	498
2	0	0	0	0	511
3	0	0	0	0	456
4	0	0	0	0	594
5	0	0	0	0	418
6	0	0	0	0	570
7	0	0	0	0	592
8	0	0	0	0	486
9	0	0	0	0	545
10	0	0	0	0	399
11	0	0	0	0	745
12	0	0	0	0	455
13	0	0	0	0	423
14	0	0	0	0	602
15	0	0	0	0	517
0	0	0	0	0	504
1	0	0	0	0	464
2	0	0	0	0	631
3	0	0	0	0	430
4	0	0	0	0	572
5	0	0	0	0	263
6	0	0	0	0	637
7	0	0	0	0	524
8	0	0	0	0	665
9	0	0	0	0	272
10	0	0	0	0	547
11	0	0	0	0	612
12	0	0	0	0	596
13	0	0	0	0	321
14	0	0	0	0	550
15	0	0	0	0	739
0	0	0	0	0	1022
1	0	0	0	0	527
2	0	0	0	0	211
3	0	0	0	0	859
4	0	0	0	0	540
5	0	0	0	0	531
6	0	0	0	0	543
7	0	0	0	0	886
8	0	0	0	0	382
9	0	0	0	0	147
10	0	0	0	0	655
11	0	0	0	0	222
12	0	0	0	0	639
13	0	0	0	0	726
14	0	0	0	0	679
15	0	0	0	0	4
0	0	0	0	0	367
1	0	0	0	0	694
2	0	0	0	0	492
3	0	0	0	0	554
4	0	0	0	0	579
5	0	0	0	0	197
6	0	0	0	0	777
7	0	0	0	0	352
8	0	0	0	0	468
9	0	0	0	0	774
10	0	0	0	0	194
11	0	0	0	0	634
12	0	0	0	0	543
13	0	0	0	0	549
14	0	0	0	0	742
15	0	0	0	0	385
0	0	0	0	0	432
1	0	0	0	0	439
2	0	0	0	0	738
3	0	0	0	0	463
4	0	0	0	0	553
5	0	0	0	0	420
6	0	0	0	0	553
7	0	0	0	0	393
8	0	0	0	0	524
9	0	0	0	0	501
10	0	0	0	0	513
11	0	0	0	0	724
12	0	0	0	0	604
13	0	0	0	0	304
14	0	0	0	0	363
15	0	0	0	0	576
0	0	0	0	0	546
1	0	0	0	0	534
2	0	0	0	0	496
3	0	0	0	0	582
4	0	0	0	0	599
5	0	0	0	0	528
6	0	0	0	0	540
7	0	0	0	0	351
8	0	0	0	0	406
9	0	0	0	0	669
10	0	0	0	0	356
11	0	0	0	0	468
12	0	0	0	0	581
13	0	0	0	0	602
14	0	0	0	0	540
15	0	0	0	0	652
0	0	0	0	0	405
1	0	0	0	0	531
2	0	0	0	0	551
3	0	0	0	0	463
4	0	0	0	0	679
5	0	0	0	0	541
6	0	0	0	0	415
7	0	0	0	0	487
8	0	0	0	0	541
9	0	0	0	0	428
10	0	0	0	0	600
11	0	0	0	0	620
12	0	0	0	0	520
13	0	0	0	0	534
14	0	0	0	0	479
15	0	0	0	0	728
0	0	0	0	0	483
1	0	0	0	0	486
2	0	0	0	0	479
3	0	0	0	0	498
4	0	0	0	0	515
5	0	0	0	0	522
6	0	0	0	0	498
7	0	0	0	0	422
8	0	0	0	0	496
9	0	0	0	0	658
10	0	0	0	0	457
11	0	0	0	0	560
12	0	0	0	0	518
13	0	0	0	0	487
14	0	0	0	0	500
15	0	0	0	0	504
0	0	0	0	0	504
1	0	0	0	0	504
2	0	0	0	0	434
3	0	0	0	0	582
4	0	0	0	0	551
5	0	0	0	0	484
6	0	0	0	0	460
7	0	0	0	0	546
8	0	0	0	0	566
9	0	0	0	0	531
10	0	0	0	0	468
11	0	0	0	0	517
12	0	0	0	0	515
13	0	0	0	0	595
14	0	0	0	0	505
15	0	0	0	0	528
0	0	0	0	0	512
1	0	0	0	0	479
2	0	0	0	0	487
3	0	0	0	0	513
4	0	0	0	0	574
5	0	0	0	0	504
6	0	0	0	0	561
7	0	0	0	0	526
8	0	0	0	0	520
9	0	0	0	0	552
10	0	0	0	0	485
11	0	0	0	0	560
12	0	0	0	0	463
13	0	0	0	0	576
14	0	0	0	0	462
15	0	0	0	0	619
0	0	0	0	0	524
1	0	0	0	0	486
2	0	0	0	0	487
3	0	0	0	0	518
4	0	0	0	0	501
5	0	0	0	0	601
6	0	0	0	0	516
7	0	0	0	0	489
8	0	0	0	0	487
9	0	0	0	0	507
10	0	0	0	0	491
11	0	0	0	0	528
12	0	0	0	0	515
13	0	0	0	0	461
14	0	0	0	0	495
15	0	0	0	0	504
0	0	0	0	0	517
1	0	0	0	0	488
2	0	0	0	0	511
3	0	0	0	0	527
4	0	0	0	0	495
5	0	0	0	0	508
6	0	0	0	0	585
7	0	0	0	0	485
8	0	0	0	0	542
9	0	0	0	0	543
10	0	0	0	0	485
11	0	0	0	0	522
12	0	0	0	0	536
13	0	0	0	0	538
14	0	0	0	0	530
15	0	0	0	0	490
0	0	0	0	0	524
1	0	0	0	0	532
2	0	0	0	0	509
3	0	0	0	0	519
4	0	0	0	0	504
5	0	0	0	0	514
6	0	0	0	0	560
7	0	0	0	0	493
8	0	0	0	0	499
9	0	0	0	0	491
10	0	0	0	0	607
11	0	0	0	0	483
12	0	0	0	0	515
13	0	0	0	0	511
14	0	0	0	0	530
15	0	0	0	0	509
0	0	0	0	0	508
1	0	0	0	0	544
2	0	0	0	0	514
3	0	0	0	0	520
4	0	0	0	0	525
5	0	0	0	0	512
6	0	0	0	0	553
7	0	0	0	0	520
8	0	0	0	0	510
9	0	0	0	0	524
10	0	0	0	0	543
11	0	0	0	0	496
12	0	0	0	0	529
13	0	0	0	0	512
14	0	0	0	0	526
15	0	0	0	0	503
0	0	0	0	0	518
1	0	0	0	0	520
2	0	0	0	0	494
3	0	0	0	0	516
4	0	0	0	0	540
5	0	0	0	0	503
6	0	0	0	0	539
7	0	0	0	0	534
8	0	0	0	0	512
9	0	0	0	0	509
10	0	0	0	0	522
11	0	0	0	0	527
12	0	0	0	0	524
13	0	0	0	0	526
14	0	0	0	0	502
15	0	0	0	0	535
0	0	0	0	0	510
1	0	0	0	0	496
2	0	0	0	0	539
3	0	0	0	0	502
4	0	0	0	0	528
5	0	0	0	0	515
6	0	0	0	0	519
7	0	0	0	0	523
8	0	0	0	0	508
9	0	0	0	0	508
10	0	0	0	0	524
11	0	0	0	0	517
12	0	0	0	0	521
13	0	0	0	0	500
14	0	0	0	0	589
15	0	0	0	0	532
0	0	0	0	0	541
1	0	0	0	0	497
2	0	0	0	0	516
3	0	0	0	0	521
4	0	0	0	0	506
5	0	0	0	0	524
6	0	0	0	0	510
7	0	0	0	0	522
8	0	0	0	0	517
9	0	0	0	0	519
10	0	0	0	0	512
11	0	0	0	0	520
12	0	0	0	0	497
13	0	0	0	0	524
14	0	0	0	0	517
15	0	0	0	0	514
0	0	0	0	0	495
1	0	0	0	0	516
2	0	0	0	0	514
3	0	0	0	0	493
4	0	0	0	0	521
5	0	0	0	0	514
6	0	0	0	0	500
7	0	0	0	0	493
8	0	0	0	0	490
9	0	0	0	0	514
10	0	0	0	0	484
11	0	0	0	0	508
12	0	0	0	0	519
13	0	0	0	0	479
14	0	0	0	0	493
15	0	0	0	0	519
0	0	0	0	0	506
1	0	0	0	0	527
2	0	0	0	0	529
3	0	0	0	0	491
4	0	0	0	0	519
5	0	0	0	0	506
6	0	0	0	0	509
7	0	0	0	0	543
8	0	0	0	0	498
9	0	0	0	0	510
10	0	0	0	0	535
11	0	0	0	0	530
12	0	0	0	0	514
13	0	0	0	0	502
14	0	0	0	0	543
15	0	0	0	0	489
0	0	0	0	0	494
1	0	0	0	0	493
2	0	0	0	0	507
3	0	0	0	0	522
4	0	0	0	0	526
5	0	0	0	0	508
6	0	0	0	0	524
7	0	0	0	0	509
8	0	0	0	0	505
9	0	0	0	0	535
10	0	0	0	0	567
11	0	0	0	0	520
12	0	0	0	0	515
13	0	0	0	0	526
14	0	0	0	0	493
15	0	0	0	0	494
0	0	0	0	0	504
1	0	0	0	0	502
2	0	0	0	0	534
3	0	0	0	0	502
4	0	0	0	0	498
5	0	0	0	0	524
6	0	0	0	0	525
7	0	0	0	0	514
8	0	0	0	0	514
9	0	0	0	0	515
10	0	0	0	0	522
11	0	0	0	0	532
12	0	0	0	0	521
13	0	0	0	0	504
14	0	0	0	0	545
15	0	0	0	0	515
0	0	0	0	0	519
1	0	0	0	0	516
2	0	0	0	0	523
3	0	0	0	0	488
4	0	0	0	0	511
5	0	0	0	0	507
6	0	0	0	0	504
7	0	0	0	0	522
8	0	0	0	0	522
9	0	0	0	0	495
10	0	0	0	0	500
11	0	0	0	0	505
12	0	0	0	0	524
13	0	0	0	0	507
14	0	0	0	0	529
15	0	0	0	0	517
0	0	0	0	0	552
1	0	0	0	0	510
2	0	0	0	0	492
3	0	0	0	0	538
4	0	0	0	0	511
5	0	0	0	0	526
6	0	0	0	0	491
7	0	0	0	0	481
8	0	0	0	0	359
9	0	0	0	0	411
10	0	0	0	0	533
11	0	0	0	0	462
12	0	0	0	0	494
13	0	0	0	0	531
14	0	0	0	0	549
15	0	0	0	0	492
0	0	0	0	0	470
1	0	0	0	0	606
2	0	0	0	0	506
3	0	0	0	0	524
4	0	0	0	0	476
5	0	0	0	0	523
6	0	0	0	0	548
7	0	0	0	0	507
8	0	0	0	0	461
9	0	0	0	0	511
10	0	0	0	0	499
11	0	0	0	0	463
12	0	0	0	0	517
13	0	0	0	0	510
14	0	0	0	0	479
15	0	0	0	0	568
0	0	0	0	0	489
1	0	0	0	0	508
2	0	0	0	0	485
3	0	0	0	0	512
4	0	0	0	0	496
5	0	0	0	0	562
6	0	0	0	0	512
7	0	0	0	0	492
8	0	0	0	0	531
9	0	0	0	0	517
10	0	0	0	0	543
11	0	0	0	0	504
12	0	0	0	0	486
13	0	0	0	0	588
14	0	0	0	0	417
15	0	0	0	0	561
0	0	0	0	0	508
1	0	0	0	0	476
2	0	0	0	0	542
3	0	0	0	0	349
4	0	0	0	0	670
5	0	0	0	0	443
6	0	0	0	0	487
7	0	0	0	0	632
8	0	0	0	0	380
9	0	0	0	0	496
10	0	0	0	0	574
11	0	0	0	0	505
12	0	0	0	0	669
13	0	0	0	0	549
14	0	0	0	0	406
15	0	0	0	0	457
0	0	0	0	0	637
1	0	0	0	0	678
2	0	0	0	0	431
3	0	0	0	0	491
4	0	0	0	0	733
5	0	0	0	0	533
6	0	0	0	0	588
7	0	0	0	0	516
8	0	0	0	0	918
9	0	0	0	0	402
10	0	0	0	0	331
11	0	0	0	0	588
12	0	0	0	0	449
13	0	0	0	0	637
14	0	0	0	0	700
15	0	0	0	0	196
0	0	0	0	0	975
1	0	0	0	0	391
2	0	0	0	0	494
3	0	0	0	0	464
4	0	0	0	0	496
5	0	0	0	0	560
6	0	0	0	0	599
7	0	0	0	0	353
8	0	0	0	0	715
9	0	0	0	0	425
10	0	0	0	0	448
11	0	0	0	0	472
12	0	0	0	0	484
13	0	0	0	0	624
14	0	0	0	0	431
15	0	0	0	0	535
0	0	0	0	0	770
1	0	0	0	0	508
2	0	0	0	0	550
3	0	0	0	0	190
4	0	0	0	0	753
5	0	0	0	0	434
6	0	0	0	0	670
7	0	0	0	0	627
8	0	0	0	0	396
9	0	0	0	0	517
10	0	0	0	0	815
11	0	0	0	0	391
12	0	0	0	0	556
13	0	0	0	0	410
14	0	0	0	0	384
15	0	0	0	0	584
0	0	0	0	0	597
1	0	0	0	0	534
2	0	0	0	0	439
3	0	0	0	0	547
4	0	0	0	0	1022
5	0	0	0	0	141
6	0	0	0	0	470
7	0	0	0	0	992
8	0	0	0	0	178
9	0	0	0	0	492
10	0	0	0	0	745
11	0	0	0	0	375
12	0	0	0	0	438
13	0	0	0	0	816
14	0	0	0	0	535
15	0	0	0	0	351
0	0	0	0	0	536
1	0	0	0	0	668
2	0	0	0	0	665
3	0	0	0	0	331
4	0	0	0	0	471
5	0	0	0	0	519
6	0	0	0	0	299
7	0	0	0	0	483
8	0	0	0	0	372
9	0	0	0	0	417
10	0	0	0	0	715
11	0	0	0	0	599
12	0	0	0	0	684
13	0	0	0	0	519
14	0	0	0	0	445
15	0	0	0	0	613
0	0	0	0	0	385
1	0	0	0	0	465
2	0	0	0	0	533
3	0	0	0	0	408
4	0	0	0	0	580
5	0	0	0	0	547
6	0	0	0	0	456
7	0	0	0	0	551
8	0	0	0	0	402
9	0	0	0	0	374
10	0	0	0	0	502
11	0	0	0	0	468
12	0	0	0	0	558
13	0	0	0	0	674
14	0	0	0	0	553
15	0	0	0	0	443
0	0	0	0	0	472
1	0	0	0	0	524
2	0	0	0	0	453
3	0	0	0	0	564
4	0	0	0	0	490
5	0	0	0	0	441
6	0	0	0	0	470
7	0	0	0	0	599
8	0	0	0	0	578
9	0	0	0	0	502
10	0	0	0	0	498
11	0	0	0	0	543
12	0	0	0	0	526
13	0	0	0	0	504
14	0	0	0	0	602
15	0	0	0	0	406
0	0	0	0	0	436
1	0	0	0	0	594
2	0	0	0	0	348
3	0	0	0	0	482
4	0	0	0	0	529
5	0	0	0	0	451
6	0	0	0	0	543
7	0	0	0	0	455
8	0	0	0	0	577
9	0	0	0	0	566
10	0	0	0	0	437
11	0	0	0	0	481
12	0	0	0	0	427
13	0	0	0	0	478
14	0	0	0	0	343
15	0	0	0	0	500
0	0	0	0	0	474
1	0	0	0	0	455
2	0	0	0	0	508
3	0	0	0	0	608
4	0	0	0	0	476
5	0	0	0	0	578
6	0	0	0	0	472
7	0	0	0	0	599
8	0	0	0	0	504
9	0	0	0	0	474
10	0	0	0	0	506
11	0	0	0	0	491
12	0	0	0	0	587
13	0	0	0	0	457
14	0	0	0	0	462
15	0	0	0	0	501
0	0	0	0	0	489
1	0	0	0	0	721
2	0	0	0	0	419
3	0	0	0	0	500
4	0	0	0	0	493
5	0	0	0	0	472
6	0	0	0	0	535
7	0	0	0	0	497
8	0	0	0	0	525
9	0	0	0	0	454
10	0	0	0	0	524
11	0	0	0	0	575
12	0	0	0	0	538
13	0	0	0	0	428
14	0	0	0	0	551
15	0	0	0	0	526
0	0	0	0	0	510
1	0	0	0	0	537
2	0	0	0	0	498
3	0	0	0	0	525
4	0	0	0	0	488
5	0	0	0	0	491
6	0	0	0	0	471
7	0	0	0	0	485
8	0	0	0	0	444
9	0	0	0	0	623
10	0	0	0	0	513
11	0	0	0	0	497
12	0	0	0	0	470
13	0	0	0	0	511
14	0	0	0	0	491
15	0	0	0	0	527
0	0	0	0	0	503
1	0	0	0	0	557
2	0	0	0	0	515
3	0	0	0	0	522
4	0	0	0	0	475
5	0	0	0	0	492
6	0	0	0	0	466
7	0	0	0	0	542
8	0	0	0	0	500
9	0	0	0	0	543
10	0	0	0	0	505
11	0	0	0	0	596
12	0	0	0	0	484
13	0	0	0	0	521
14	0	0	0	0	514
15	0	0	0	0	505
0	0	0	0	0	479
1	0	0	0	0	583
2	0	0	0	0	517
3	0	0	0	0	539
4	0	0	0	0	518
5	0	0	0	0	529
6	0	0	0	0	512
7	0	0	0	0	504
8	0	0	0	0	509
9	0	0	0	0	519
10	0	0	0	0	500
11	0	0	0	0	481
12	0	0	0	0	547
13	0	0	0	0	557
14	0	0	0	0	446
15	0	0	0	0	481
0	0	0	0	0	516
1	0	0	0	0	487
2	0	0	0	0	528
3	0	0	0	0	526
4	0	0	0	0	549
5	0	0	0	0	535
6	0	0	0	0	521
7	0	0	0	0	546
8	0	0	0	0	468
9	0	0	0	0	551
10	0	0	0	0	494
11	0	0	0	0	448
12	0	0	0	0	563
13	0	0	0	0	517
14	0	0	0	0	542
15	0	0	0	0	495
0	0	0	0	0	497
1	0	0	0	0	533
2	0	0	0	0	474
3	0	0	0	0	495
4	0	0	0	0	539
5	0	0	0	0	500
6	0	0	0	0	497
7	0	0	0	0	489
8	0	0	0	0	489
9	0	0	0	0	532
10	0	0	0	0	521
11	0	0	0	0	493
12	0	0	0	0	519
13	0	0	0	0	494
14	0	0	0	0	583
15	0	0	0	0	513
0	0	0	0	0	465
1	0	0	0	0	565
