# OpenSignals Text File Format
# {"CC:78:AB:5E:8E:CE":{"sensor":["RAW"],"device name":"CC:78:AB:5E:8E:CE","column":["nSeq","I1","I2","O1","O2","A1"],"sync interval":2,"time":"10:10:13","comments":"","device connection":"BLECC:78:AB:5E:8E:CE","channels":[1],"date":"2022-05-11","mode":0,"digital IO":[0,0,1,1],"firmware version":0,"device":"bitalino_rev","position":0,"sampling rate":100,"label":["A1"],"resolution":[10],"special":[{}]}}
# EndOfHeader
0	0	0	0	0	513
1	0	0	0	0	494
2	0	0	0	0	512
3	0	0	0	0	511
4	0	0	0	0	540
5	0	0	0	0	488
6	0	0	0	0	511
7	0	0	0	0	466
8	0	0	0	0	497
9	0	0	0	0	508
10	0	0	0	0	520
11	0	0	0	0	535
12	0	0	0	0	528
13	0	0	0	0	508
14	0	0	0	0	496
15	0	0	0	0	572
0	0	0	0	0	500
1	0	0	0	0	512
2	0	0	0	0	579
3	0	0	0	0	494
4	0	0	0	0	540
5	0	0	0	0	525
6	0	0	0	0	541
7	0	0	0	0	496
8	0	0	0	0	496
9	0	0	0	0	511
10	0	0	0	0	498
11	0	0	0	0	519
12	0	0	0	0	511
13	0	0	0	0	504
14	0	0	0	0	511
15	0	0	0	0	512
0	0	0	0	0	517
1	0	0	0	0	504
2	0	0	0	0	505
3	0	0	0	0	505
4	0	0	0	0	519
5	0	0	0	0	499
6	0	0	0	0	506
7	0	0	0	0	512
8	0	0	0	0	516
9	0	0	0	0	508
10	0	0	0	0	504
11	0	0	0	0	545
12	0	0	0	0	494
13	0	0	0	0	518
14	0	0	0	0	498
15	0	0	0	0	507
0	0	0	0	0	512
1	0	0	0	0	512
2	0	0	0	0	531
3	0	0	0	0	487
4	0	0	0	0	525
5	0	0	0	0	504
6	0	0	0	0	490
7	0	0	0	0	501
8	0	0	0	0	511
9	0	0	0	0	510
10	0	0	0	0	510
11	0	0	0	0	505
12	0	0	0	0	494
13	0	0	0	0	509
14	0	0	0	0	602
15	0	0	0	0	498
0	0	0	0	0	513
1	0	0	0	0	522
2	0	0	0	0	504
3	0	0	0	0	492
4	0	0	0	0	507
5	0	0	0	0	502
6	0	0	0	0	527
7	0	0	0	0	505
8	0	0	0	0	523
9	0	0	0	0	509
10	0	0	0	0	499
11	0	0	0	0	524
12	0	0	0	0	502
13	0	0	0	0	538
14	0	0	0	0	521
15	0	0	0	0	512
0	0	0	0	0	505
1	0	0	0	0	509
2	0	0	0	0	523
3	0	0	0	0	512
4	0	0	0	0	507
5	0	0	0	0	535
6	0	0	0	0	512
7	0	0	0	0	495
8	0	0	0	0	495
9	0	0	0	0	525
10	0	0	0	0	518
11	0	0	0	0	516
12	0	0	0	0	523
13	0	0	0	0	473
14	0	0	0	0	524
15	0	0	0	0	519
0	0	0	0	0	540
1	0	0	0	0	534
2	0	0	0	0	496
3	0	0	0	0	537
4	0	0	0	0	518
5	0	0	0	0	544
6	0	0	0	0	453
7	0	0	0	0	513
8	0	0	0	0	614
9	0	0	0	0	440
10	0	0	0	0	546
11	0	0	0	0	439
12	0	0	0	0	579
13	0	0	0	0	491
14	0	0	0	0	467
15	0	0	0	0	566
0	0	0	0	0	359
1	0	0	0	0	730
2	0	0	0	0	466
3	0	0	0	0	439
4	0	0	0	0	500
5	0	0	0	0	507
6	0	0	0	0	536
7	0	0	0	0	499
8	0	0	0	0	457
9	0	0	0	0	647
10	0	0	0	0	387
11	0	0	0	0	541
12	0	0	0	0	270
13	0	0	0	0	659
14	0	0	0	0	612
15	0	0	0	0	400
0	0	0	0	0	624
1	0	0	0	0	467
2	0	0	0	0	255
3	0	0	0	0	827
4	0	0	0	0	292
5	0	0	0	0	515
6	0	0	0	0	573
7	0	0	0	0	458
8	0	0	0	0	550
9	0	0	0	0	505
10	0	0	0	0	595
11	0	0	0	0	251
12	0	0	0	0	916
13	0	0	0	0	99
14	0	0	0	0	693
15	0	0	0	0	579
0	0	0	0	0	296
1	0	0	0	0	260
2	0	0	0	0	430
3	0	0	0	0	709
4	0	0	0	0	273
5	0	0	0	0	1022
6	0	0	0	0	289
7	0	0	0	0	450
8	0	0	0	0	552
9	0	0	0	0	451
10	0	0	0	0	570
11	0	0	0	0	469
12	0	0	0	0	445
13	0	0	0	0	450
14	0	0	0	0	591
15	0	0	0	0	825
0	0	0	0	0	367
1	0	0	0	0	508
2	0	0	0	0	487
3	0	0	0	0	704
4	0	0	0	0	435
5	0	0	0	0	598
6	0	0	0	0	415
7	0	0	0	0	618
8	0	0	0	0	517
9	0	0	0	0	845
10	0	0	0	0	468
11	0	0	0	0	680
12	0	0	0	0	509
13	0	0	0	0	507
14	0	0	0	0	510
15	0	0	0	0	583
0	0	0	0	0	693
1	0	0	0	0	622
2	0	0	0	0	430
3	0	0	0	0	474
4	0	0	0	0	647
5	0	0	0	0	505
6	0	0	0	0	482
7	0	0	0	0	347
8	0	0	0	0	683
9	0	0	0	0	316
10	0	0	0	0	645
11	0	0	0	0	468
12	0	0	0	0	413
13	0	0	0	0	435
14	0	0	0	0	608
15	0	0	0	0	350
0	0	0	0	0	568
1	0	0	0	0	390
2	0	0	0	0	571
3	0	0	0	0	461
4	0	0	0	0	577
5	0	0	0	0	529
6	0	0	0	0	421
7	0	0	0	0	376
8	0	0	0	0	535
9	0	0	0	0	431
10	0	0	0	0	581
11	0	0	0	0	551
12	0	0	0	0	473
13	0	0	0	0	620
14	0	0	0	0	416
15	0	0	0	0	526
0	0	0	0	0	548
1	0	0	0	0	551
2	0	0	0	0	450
3	0	0	0	0	518
4	0	0	0	0	453
5	0	0	0	0	511
6	0	0	0	0	469
7	0	0	0	0	495
8	0	0	0	0	569
9	0	0	0	0	633
10	0	0	0	0	539
11	0	0	0	0	575
12	0	0	0	0	444
13	0	0	0	0	574
14	0	0	0	0	487
15	0	0	0	0	495
0	0	0	0	0	491
1	0	0	0	0	521
2	0	0	0	0	571
3	0	0	0	0	535
4	0	0	0	0	481
5	0	0	0	0	451
6	0	0	0	0	543
7	0	0	0	0	481
8	0	0	0	0	499
9	0	0	0	0	480
10	0	0	0	0	564
11	0	0	0	0	502
12	0	0	0	0	530
13	0	0	0	0	482
14	0	0	0	0	510
15	0	0	0	0	505
0	0	0	0	0	485
1	0	0	0	0	507
2	0	0	0	0	482
3	0	0	0	0	573
4	0	0	0	0	495
5	0	0	0	0	536
6	0	0	0	0	489
7	0	0	0	0	512
8	0	0	0	0	512
9	0	0	0	0	512
10	0	0	0	0	485
11	0	0	0	0	492
12	0	0	0	0	504
13	0	0	0	0	528
14	0	0	0	0	495
15	0	0	0	0	513
0	0	0	0	0	486
1	0	0	0	0	532
2	0	0	0	0	490
3	0	0	0	0	516
4	0	0	0	0	486
5	0	0	0	0	504
6	0	0	0	0	561
7	0	0	0	0	522
8	0	0	0	0	486
9	0	0	0	0	512
10	0	0	0	0	493
11	0	0	0	0	515
12	0	0	0	0	514
13	0	0	0	0	499
14	0	0	0	0	501
15	0	0	0	0	510
0	0	0	0	0	507
1	0	0	0	0	535
2	0	0	0	0	482
3	0	0	0	0	486
4	0	0	0	0	529
5	0	0	0	0	488
6	0	0	0	0	493
7	0	0	0	0	511
8	0	0	0	0	498
9	0	0	0	0	481
10	0	0	0	0	523
11	0	0	0	0	519
12	0	0	0	0	537
13	0	0	0	0	499
14	0	0	0	0	513
15	0	0	0	0	496
0	0	0	0	0	526
1	0	0	0	0	512
2	0	0	0	0	506
3	0	0	0	0	518
4	0	0	0	0	513
5	0	0	0	0	511
6	0	0	0	0	516
7	0	0	0	0	502
8	0	0	0	0	501
9	0	0	0	0	509
10	0	0	0	0	507
11	0	0	0	0	487
12	0	0	0	0	556
13	0	0	0	0	526
14	0	0	0	0	491
15	0	0	0	0	494
0	0	0	0	0	511
1	0	0	0	0	496
2	0	0	0	0	509
3	0	0	0	0	491
4	0	0	0	0	531
5	0	0	0	0	540
6	0	0	0	0	510
7	0	0	0	0	536
8	0	0	0	0	535
9	0	0	0	0	479
10	0	0	0	0	521
11	0	0	0	0	521
12	0	0	0	0	479
13	0	0	0	0	566
14	0	0	0	0	538
15	0	0	0	0	495
0	0	0	0	0	550
1	0	0	0	0	531
2	0	0	0	0	506
3	0	0	0	0	492
4	0	0	0	0	557
5	0	0	0	0	540
6	0	0	0	0	519
7	0	0	0	0	499
8	0	0	0	0	500
9	0	0	0	0	559
10	0	0	0	0	487
11	0	0	0	0	526
12	0	0	0	0	519
13	0	0	0	0	488
14	0	0	0	0	472
15	0	0	0	0	537
0	0	0	0	0	505
1	0	0	0	0	487
2	0	0	0	0	529
3	0	0	0	0	528
4	0	0	0	0	507
5	0	0	0	0	514
6	0	0	0	0	521
7	0	0	0	0	497
8	0	0	0	0	494
9	0	0	0	0	515
10	0	0	0	0	593
11	0	0	0	0	506
12	0	0	0	0	499
13	0	0	0	0	491
14	0	0	0	0	469
15	0	0	0	0	515
0	0	0	0	0	524
1	0	0	0	0	544
2	0	0	0	0	517
3	0	0	0	0	519
4	0	0	0	0	542
5	0	0	0	0	506
6	0	0	0	0	500
7	0	0	0	0	508
8	0	0	0	0	504
9	0	0	0	0	537
10	0	0	0	0	511
11	0	0	0	0	515
12	0	0	0	0	503
13	0	0	0	0	535
14	0	0	0	0	476
15	0	0	0	0	505
0	0	0	0	0	523
1	0	0	0	0	496
2	0	0	0	0	497
3	0	0	0	0	492
4	0	0	0	0	589
5	0	0	0	0	514
6	0	0	0	0	539
7	0	0	0	0	515
8	0	0	0	0	483
9	0	0	0	0	539
10	0	0	0	0	514
11	0	0	0	0	524
12	0	0	0	0	517
13	0	0	0	0	519
14	0	0	0	0	532
15	0	0	0	0	523
0	0	0	0	0	516
1	0	0	0	0	556
2	0	0	0	0	505
3	0	0	0	0	535
4	0	0	0	0	528
5	0	0	0	0	507
6	0	0	0	0	530
7	0	0	0	0	511
8	0	0	0	0	548
9	0	0	0	0	494
10	0	0	0	0	551
11	0	0	0	0	487
12	0	0	0	0	491
13	0	0	0	0	504
14	0	0	0	0	505
15	0	0	0	0	490
0	0	0	0	0	505
1	0	0	0	0	498
2	0	0	0	0	479
3	0	0	0	0	503
4	0	0	0	0	515
5	0	0	0	0	535
6	0	0	0	0	512
7	0	0	0	0	516
8	0	0	0	0	534
9	0	0	0	0	507
10	0	0	0	0	545
11	0	0	0	0	521
12	0	0	0	0	496
13	0	0	0	0	515
14	0	0	0	0	504
15	0	0	0	0	526
0	0	0	0	0	497
1	0	0	0	0	509
2	0	0	0	0	502
3	0	0	0	0	519
4	0	0	0	0	483
5	0	0	0	0	569
6	0	0	0	0	508
7	0	0	0	0	495
8	0	0	0	0	513
9	0	0	0	0	509
10	0	0	0	0	527
11	0	0	0	0	494
12	0	0	0	0	509
13	0	0	0	0	480
14	0	0	0	0	526
15	0	0	0	0	502
0	0	0	0	0	503
1	0	0	0	0	497
2	0	0	0	0	504
3	0	0	0	0	497
4	0	0	0	0	524
5	0	0	0	0	511
6	0	0	0	0	500
7	0	0	0	0	512
8	0	0	0	0	518
9	0	0	0	0	527
10	0	0	0	0	485
11	0	0	0	0	491
12	0	0	0	0	527
13	0	0	0	0	508
14	0	0	0	0	534
15	0	0	0	0	454
0	0	0	0	0	529
1	0	0	0	0	515
2	0	0	0	0	473
3	0	0	0	0	575
4	0	0	0	0	575
5	0	0	0	0	462
6	0	0	0	0	531
7	0	0	0	0	538
8	0	0	0	0	498
9	0	0	0	0	512
10	0	0	0	0	445
11	0	0	0	0	713
12	0	0	0	0	505
13	0	0	0	0	368
14	0	0	0	0	665
15	0	0	0	0	504
0	0	0	0	0	755
1	0	0	0	0	367
2	0	0	0	0	548
3	0	0	0	0	452
4	0	0	0	0	254
5	0	0	0	0	599
6	0	0	0	0	596
7	0	0	0	0	780
8	0	0	0	0	290
9	0	0	0	0	792
10	0	0	0	0	401
11	0	0	0	0	313
12	0	0	0	0	359
13	0	0	0	0	1022
14	0	0	0	0	221
15	0	0	0	0	859
0	0	0	0	0	170
1	0	0	0	0	432
2	0	0	0	0	381
3	0	0	0	0	1022
4	0	0	0	0	432
5	0	0	0	0	168
6	0	0	0	0	781
7	0	0	0	0	416
8	0	0	0	0	630
9	0	0	0	0	509
10	0	0	0	0	272
11	0	0	0	0	497
12	0	0	0	0	463
13	0	0	0	0	486
14	0	0	0	0	385
15	0	0	0	0	385
0	0	0	0	0	363
1	0	0	0	0	416
2	0	0	0	0	413
3	0	0	0	0	375
4	0	0	0	0	538
5	0	0	0	0	679
6	0	0	0	0	528
7	0	0	0	0	369
8	0	0	0	0	688
9	0	0	0	0	320
10	0	0	0	0	436
11	0	0	0	0	568
12	0	0	0	0	899
13	0	0	0	0	407
14	0	0	0	0	434
15	0	0	0	0	493
0	0	0	0	0	540
1	0	0	0	0	581
2	0	0	0	0	414
3	0	0	0	0	520
4	0	0	0	0	644
5	0	0	0	0	481
6	0	0	0	0	503
7	0	0	0	0	431
8	0	0	0	0	462
9	0	0	0	0	673
10	0	0	0	0	585
11	0	0	0	0	450
12	0	0	0	0	604
13	0	0	0	0	591
14	0	0	0	0	484
15	0	0	0	0	480
0	0	0	0	0	432
1	0	0	0	0	735
2	0	0	0	0	448
3	0	0	0	0	504
4	0	0	0	0	540
5	0	0	0	0	440
6	0	0	0	0	580
7	0	0	0	0	443
8	0	0	0	0	587
9	0	0	0	0	497
10	0	0	0	0	459
11	0	0	0	0	537
12	0	0	0	0	529
13	0	0	0	0	504
14	0	0	0	0	569
15	0	0	0	0	518
0	0	0	0	0	645
1	0	0	0	0	536
2	0	0	0	0	466
3	0	0	0	0	481
4	0	0	0	0	435
5	0	0	0	0	626
6	0	0	0	0	481
7	0	0	0	0	487
8	0	0	0	0	523
9	0	0	0	0	507
10	0	0	0	0	549
11	0	0	0	0	474
12	0	0	0	0	512
13	0	0	0	0	376
14	0	0	0	0	496
15	0	0	0	0	527
0	0	0	0	0	489
1	0	0	0	0	679
2	0	0	0	0	444
3	0	0	0	0	429
4	0	0	0	0	543
5	0	0	0	0	519
6	0	0	0	0	460
7	0	0	0	0	480
8	0	0	0	0	535
9	0	0	0	0	591
10	0	0	0	0	559
11	0	0	0	0	472
12	0	0	0	0	483
13	0	0	0	0	443
14	0	0	0	0	564
15	0	0	0	0	531
0	0	0	0	0	543
1	0	0	0	0	506
2	0	0	0	0	512
3	0	0	0	0	515
4	0	0	0	0	468
5	0	0	0	0	494
6	0	0	0	0	520
7	0	0	0	0	487
8	0	0	0	0	593
9	0	0	0	0	442
10	0	0	0	0	578
11	0	0	0	0	428
12	0	0	0	0	499
13	0	0	0	0	486
14	0	0	0	0	543
15	0	0	0	0	496
0	0	0	0	0	688
1	0	0	0	0	509
2	0	0	0	0	484
3	0	0	0	0	513
4	0	0	0	0	519
5	0	0	0	0	515
6	0	0	0	0	508
7	0	0	0	0	555
8	0	0	0	0	547
9	0	0	0	0	479
10	0	0	0	0	540
11	0	0	0	0	496
12	0	0	0	0	530
13	0	0	0	0	474
14	0	0	0	0	547
15	0	0	0	0	490
0	0	0	0	0	508
1	0	0	0	0	473
2	0	0	0	0	541
3	0	0	0	0	573
4	0	0	0	0	483
5	0	0	0	0	496
6	0	0	0	0	559
7	0	0	0	0	529
8	0	0	0	0	548
9	0	0	0	0	512
10	0	0	0	0	488
11	0	0	0	0	526
12	0	0	0	0	496
13	0	0	0	0	515
14	0	0	0	0	524
15	0	0	0	0	511
0	0	0	0	0	512
1	0	0	0	0	512
2	0	0	0	0	475
3	0	0	0	0	517
4	0	0	0	0	498
5	0	0	0	0	539
6	0	0	0	0	506
7	0	0	0	0	507
8	0	0	0	0	594
9	0	0	0	0	482
10	0	0	0	0	498
11	0	0	0	0	509
12	0	0	0	0	505
13	0	0	0	0	515
14	0	0	0	0	521
15	0	0	0	0	531
0	0	0	0	0	499
1	0	0	0	0	540
2	0	0	0	0	508
3	0	0	0	0	538
4	0	0	0	0	517
5	0	0	0	0	534
6	0	0	0	0	496
7	0	0	0	0	460
8	0	0	0	0	559
9	0	0	0	0	508
10	0	0	0	0	519
11	0	0	0	0	514
12	0	0	0	0	484
13	0	0	0	0	542
14	0	0	0	0	504
15	0	0	0	0	504
0	0	0	0	0	533
1	0	0	0	0	504
2	0	0	0	0	503
3	0	0	0	0	484
4	0	0	0	0	512
5	0	0	0	0	501
6	0	0	0	0	477
7	0	0	0	0	525
8	0	0	0	0	524
9	0	0	0	0	504
10	0	0	0	0	513
11	0	0	0	0	510
12	0	0	0	0	481
13	0	0	0	0	558
14	0	0	0	0	500
15	0	0	0	0	518
0	0	0	0	0	504
1	0	0	0	0	521
2	0	0	0	0	504
3	0	0	0	0	522
4	0	0	0	0	505
5	0	0	0	0	513
6	0	0	0	0	536
7	0	0	0	0	494
8	0	0	0	0	507
9	0	0	0	0	500
10	0	0	0	0	540
11	0	0	0	0	513
12	0	0	0	0	465
13	0	0	0	0	511
14	0	0	0	0	553
15	0	0	0	0	502
0	0	0	0	0	514
1	0	0	0	0	504
2	0	0	0	0	485
3	0	0	0	0	524
4	0	0	0	0	477
5	0	0	0	0	536
6	0	0	0	0	512
7	0	0	0	0	525
8	0	0	0	0	536
9	0	0	0	0	506
10	0	0	0	0	508
11	0	0	0	0	524
12	0	0	0	0	504
13	0	0	0	0	511
14	0	0	0	0	509
15	0	0	0	0	495
0	0	0	0	0	484
1	0	0	0	0	507
2	0	0	0	0	537
3	0	0	0	0	497
4	0	0	0	0	475
5	0	0	0	0	504
6	0	0	0	0	483
7	0	0	0	0	521
8	0	0	0	0	508
9	0	0	0	0	518
10	0	0	0	0	523
11	0	0	0	0	547
12	0	0	0	0	476
13	0	0	0	0	505
14	0	0	0	0	529
15	0	0	0	0	506
0	0	0	0	0	504
1	0	0	0	0	492
2	0	0	0	0	529
3	0	0	0	0	560
4	0	0	0	0	490
5	0	0	0	0	481
6	0	0	0	0	523
7	0	0	0	0	518
8	0	0	0	0	502
9	0	0	0	0	527
10	0	0	0	0	476
11	0	0	0	0	540
12	0	0	0	0	508
13	0	0	0	0	513
14	0	0	0	0	515
15	0	0	0	0	521
0	0	0	0	0	489
1	0	0	0	0	466
2	0	0	0	0	541
3	0	0	0	0	534
4	0	0	0	0	533
5	0	0	0	0	484
6	0	0	0	0	519
7	0	0	0	0	494
8	0	0	0	0	519
9	0	0	0	0	533
10	0	0	0	0	498
11	0	0	0	0	530
12	0	0	0	0	501
13	0	0	0	0	506
14	0	0	0	0	526
15	0	0	0	0	500
0	0	0	0	0	473
1	0	0	0	0	551
2	0	0	0	0	500
3	0	0	0	0	495
4	0	0	0	0	510
5	0	0	0	0	545
6	0	0	0	0	521
7	0	0	0	0	519
8	0	0	0	0	508
9	0	0	0	0	526
10	0	0	0	0	515
11	0	0	0	0	511
12	0	0	0	0	493
13	0	0	0	0	512
14	0	0	0	0	496
15	0	0	0	0	522
0	0	0	0	0	501
1	0	0	0	0	504
2	0	0	0	0	543
3	0	0	0	0	504
4	0	0	0	0	489
5	0	0	0	0	518
6	0	0	0	0	516
7	0	0	0	0	500
8	0	0	0	0	507
9	0	0	0	0	504
10	0	0	0	0	510
11	0	0	0	0	528
12	0	0	0	0	519
13	0	0	0	0	537
14	0	0	0	0	500
15	0	0	0	0	624
0	0	0	0	0	498
1	0	0	0	0	490
2	0	0	0	0	514
3	0	0	0	0	517
4	0	0	0	0	518
5	0	0	0	0	505
6	0	0	0	0	496
7	0	0	0	0	511
8	0	0	0	0	515
9	0	0	0	0	543
10	0	0	0	0	500
11	0	0	0	0	515
12	0	0	0	0	520
13	0	0	0	0	516
14	0	0	0	0	572
15	0	0	0	0	479
0	0	0	0	0	502
1	0	0	0	0	511
2	0	0	0	0	524
3	0	0	0	0	504
4	0	0	0	0	516
5	0	0	0	0	501
6	0	0	0	0	491
7	0	0	0	0	544
8	0	0	0	0	521
9	0	0	0	0	500
10	0	0	0	0	503
11	0	0	0	0	543
12	0	0	0	0	508
13	0	0	0	0	493
14	0	0	0	0	534
15	0	0	0	0	460
0	0	0	0	0	482
1	0	0	0	0	579
2	0	0	0	0	519
3	0	0	0	0	481
4	0	0	0	0	582
5	0	0	0	0	487
6	0	0	0	0	426
7	0	0	0	0	681
8	0	0	0	0	484
9	0	0	0	0	343
10	0	0	0	0	572
11	0	0	0	0	415
12	0	0	0	0	377
13	0	0	0	0	810
14	0	0	0	0	63
15	0	0	0	0	863
0	0	0	0	0	607
1	0	0	0	0	181
2	0	0	0	0	720
3	0	0	0	0	360
4	0	0	0	0	1022
5	0	0	0	0	0
6	0	0	0	0	446
7	0	0	0	0	558
8	0	0	0	0	523
9	0	0	0	0	1022
10	0	0	0	0	3
11	0	0	0	0	486
12	0	0	0	0	1009
13	0	0	0	0	287
14	0	0	0	0	281
15	0	0	0	0	714
0	0	0	0	0	639
1	0	0	0	0	220
2	0	0	0	0	504
3	0	0	0	0	529
4	0	0	0	0	335
5	0	0	0	0	632
6	0	0	0	0	860
7	0	0	0	0	270
8	0	0	0	0	483
9	0	0	0	0	338
10	0	0	0	0	945
11	0	0	0	0	418
12	0	0	0	0	684
13	0	0	0	0	595
14	0	0	0	0	739
15	0	0	0	0	279
0	0	0	0	0	412
1	0	0	0	0	619
2	0	0	0	0	566
3	0	0	0	0	514
4	0	0	0	0	869
5	0	0	0	0	525
6	0	0	0	0	226
7	0	0	0	0	578
8	0	0	0	0	587
9	0	0	0	0	511
10	0	0	0	0	630
11	0	0	0	0	425
12	0	0	0	0	576
13	0	0	0	0	553
14	0	0	0	0	422
15	0	0	0	0	385
0	0	0	0	0	624
1	0	0	0	0	536
2	0	0	0	0	224
3	0	0	0	0	636
4	0	0	0	0	402
5	0	0	0	0	342
6	0	0	0	0	533
7	0	0	0	0	620
8	0	0	0	0	560
9	0	0	0	0	445
10	0	0	0	0	519
11	0	0	0	0	540
12	0	0	0	0	394
13	0	0	0	0	519
14	0	0	0	0	470
15	0	0	0	0	680
0	0	0	0	0	429
1	0	0	0	0	641
2	0	0	0	0	506
3	0	0	0	0	527
4	0	0	0	0	476
5	0	0	0	0	461
6	0	0	0	0	590
7	0	0	0	0	505
8	0	0	0	0	504
9	0	0	0	0	519
10	0	0	0	0	471
11	0	0	0	0	532
12	0	0	0	0	521
13	0	0	0	0	451
14	0	0	0	0	564
15	0	0	0	0	462
0	0	0	0	0	492
1	0	0	0	0	526
2	0	0	0	0	469
3	0	0	0	0	462
4	0	0	0	0	590
5	0	0	0	0	556
6	0	0	0	0	535
7	0	0	0	0	505
8	0	0	0	0	514
9	0	0	0	0	563
10	0	0	0	0	518
11	0	0	0	0	568
12	0	0	0	0	483
13	0	0	0	0	565
14	0	0	0	0	521
15	0	0	0	0	641
0	0	0	0	0	487
1	0	0	0	0	522
2	0	0	0	0	469
3	0	0	0	0	597
4	0	0	0	0	564
5	0	0	0	0	472
6	0	0	0	0	498
7	0	0	0	0	547
8	0	0	0	0	558
9	0	0	0	0	487
10	0	0	0	0	550
11	0	0	0	0	455
12	0	0	0	0	579
13	0	0	0	0	489
14	0	0	0	0	506
15	0	0	0	0	467
0	0	0	0	0	565
1	0	0	0	0	452
2	0	0	0	0	520
3	0	0	0	0	583
4	0	0	0	0	550
5	0	0	0	0	494
6	0	0	0	0	553
7	0	0	0	0	508
8	0	0	0	0	492
9	0	0	0	0	484
10	0	0	0	0	526
11	0	0	0	0	478
12	0	0	0	0	478
13	0	0	0	0	510
14	0	0	0	0	672
15	0	0	0	0	456
0	0	0	0	0	495
1	0	0	0	0	497
2	0	0	0	0	492
3	0	0	0	0	547
4	0	0	0	0	507
5	0	0	0	0	515
6	0	0	0	0	525
7	0	0	0	0	523
8	0	0	0	0	563
9	0	0	0	0	494
10	0	0	0	0	529
11	0	0	0	0	495
12	0	0	0	0	510
13	0	0	0	0	503
14	0	0	0	0	565
15	0	0	0	0	517
0	0	0	0	0	530
1	0	0	0	0	503
2	0	0	0	0	499
3	0	0	0	0	514
4	0	0	0	0	507
5	0	0	0	0	489
6	0	0	0	0	581
7	0	0	0	0	500
8	0	0	0	0	540
9	0	0	0	0	483
10	0	0	0	0	512
11	0	0	0	0	497
12	0	0	0	0	514
13	0	0	0	0	511
14	0	0	0	0	496
15	0	0	0	0	500
0	0	0	0	0	506
1	0	0	0	0	473
2	0	0	0	0	516
3	0	0	0	0	521
4	0	0	0	0	538
5	0	0	0	0	480
6	0	0	0	0	553
7	0	0	0	0	504
8	0	0	0	0	485
9	0	0	0	0	526
10	0	0	0	0	537
11	0	0	0	0	476
12	0	0	0	0	534
13	0	0	0	0	526
14	0	0	0	0	490
15	0	0	0	0	511
0	0	0	0	0	504
1	0	0	0	0	566
2	0	0	0	0	505
3	0	0	0	0	477
4	0	0	0	0	517
5	0	0	0	0	466
6	0	0	0	0	526
7	0	0	0	0	507
8	0	0	0	0	516
9	0	0	0	0	524
10	0	0	0	0	520
11	0	0	0	0	518
12	0	0	0	0	491
13	0	0	0	0	500
14	0	0	0	0	507
15	0	0	0	0	529
0	0	0	0	0	521
1	0	0	0	0	492
2	0	0	0	0	505
3	0	0	0	0	553
4	0	0	0	0	514
5	0	0	0	0	532
6	0	0	0	0	551
7	0	0	0	0	475
8	0	0	0	0	490
9	0	0	0	0	504
10	0	0	0	0	529
11	0	0	0	0	509
12	0	0	0	0	503
13	0	0	0	0	520
14	0	0	0	0	476
15	0	0	0	0	497
0	0	0	0	0	504
1	0	0	0	0	555
2	0	0	0	0	539
3	0	0	0	0	513
4	0	0	0	0	512
5	0	0	0	0	519
6	0	0	0	0	553
7	0	0	0	0	511
8	0	0	0	0	473
9	0	0	0	0	565
10	0	0	0	0	544
11	0	0	0	0	549
12	0	0	0	0	502
13	0	0	0	0	507
14	0	0	0	0	512
15	0	0	0	0	516
0	0	0	0	0	508
1	0	0	0	0	540
2	0	0	0	0	512
3	0	0	0	0	516
4	0	0	0	0	502
5	0	0	0	0	480
6	0	0	0	0	549
7	0	0	0	0	515
8	0	0	0	0	489
9	0	0	0	0	543
10	0	0	0	0	520
11	0	0	0	0	511
12	0	0	0	0	472
13	0	0	0	0	531
14	0	0	0	0	519
15	0	0	0	0	502
0	0	0	0	0	517
1	0	0	0	0	535
2	0	0	0	0	504
3	0	0	0	0	507
4	0	0	0	0	547
5	0	0	0	0	485
6	0	0	0	0	512
7	0	0	0	0	515
8	0	0	0	0	545
9	0	0	0	0	519
10	0	0	0	0	506
11	0	0	0	0	498
12	0	0	0	0	519
13	0	0	0	0	496
14	0	0	0	0	548
15	0	0	0	0	509
0	0	0	0	0	504
1	0	0	0	0	504
2	0	0	0	0	521
3	0	0	0	0	519
4	0	0	0	0	494
5	0	0	0	0	504
6	0	0	0	0	545
7	0	0	0	0	521
8	0	0	0	0	490
9	0	0	0	0	537
10	0	0	0	0	510
11	0	0	0	0	524
12	0	0	0	0	494
13	0	0	0	0	528
14	0	0	0	0	498
15	0	0	0	0	503
0	0	0	0	0	524
1	0	0	0	0	496
2	0	0	0	0	504
3	0	0	0	0	521
4	0	0	0	0	510
5	0	0	0	0	511
6	0	0	0	0	498
7	0	0	0	0	519
8	0	0	0	0	579
9	0	0	0	0	510
10	0	0	0	0	501
11	0	0	0	0	519
12	0	0	0	0	528
13	0	0	0	0	507
14	0	0	0	0	504
15	0	0	0	0	512
0	0	0	0	0	502
1	0	0	0	0	529
2	0	0	0	0	511
3	0	0	0	0	522
4	0	0	0	0	519
5	0	0	0	0	508
6	0	0	0	0	497
7	0	0	0	0	525
8	0	0	0	0	512
9	0	0	0	0	599
10	0	0	0	0	589
11	0	0	0	0	632
12	0	0	0	0	544
13	0	0	0	0	490
14	0	0	0	0	495
15	0	0	0	0	519
0	0	0	0	0	505
1	0	0	0	0	517
2	0	0	0	0	464
3	0	0	0	0	540
4	0	0	0	0	487
5	0	0	0	0	472
6	0	0	0	0	525
7	0	0	0	0	539
8	0	0	0	0	513
9	0	0	0	0	506
10	0	0	0	0	512
11	0	0	0	0	550
12	0	0	0	0	497
13	0	0	0	0	510
14	0	0	0	0	490
15	0	0	0	0	515
0	0	0	0	0	600
1	0	0	0	0	470
2	0	0	0	0	504
3	0	0	0	0	509
4	0	0	0	0	498
5	0	0	0	0	525
6	0	0	0	0	511
7	0	0	0	0	513
8	0	0	0	0	537
9	0	0	0	0	508
10	0	0	0	0	434
11	0	0	0	0	463
12	0	0	0	0	484
13	0	0	0	0	510
14	0	0	0	0	541
15	0	0	0	0	534
0	0	0	0	0	472
1	0	0	0	0	476
2	0	0	0	0	494
3	0	0	0	0	469
4	0	0	0	0	524
5	0	0	0	0	586
6	0	0	0	0	427
7	0	0	0	0	568
8	0	0	0	0	568
9	0	0	0	0	447
10	0	0	0	0	531
11	0	0	0	0	516
12	0	0	0	0	519
13	0	0	0	0	553
14	0	0	0	0	532
15	0	0	0	0	400
0	0	0	0	0	551
1	0	0	0	0	668
2	0	0	0	0	298
3	0	0	0	0	559
4	0	0	0	0	540
5	0	0	0	0	384
6	0	0	0	0	372
7	0	0	0	0	599
8	0	0	0	0	459
9	0	0	0	0	519
10	0	0	0	0	543
11	0	0	0	0	364
12	0	0	0	0	516
13	0	0	0	0	441
14	0	0	0	0	496
15	0	0	0	0	740
0	0	0	0	0	75
1	0	0	0	0	864
2	0	0	0	0	41
3	0	0	0	0	649
4	0	0	0	0	1022
5	0	0	0	0	128
6	0	0	0	0	329
7	0	0	0	0	720
8	0	0	0	0	206
9	0	0	0	0	607
10	0	0	0	0	362
11	0	0	0	0	719
12	0	0	0	0	346
13	0	0	0	0	712
14	0	0	0	0	405
15	0	0	0	0	188
0	0	0	0	0	1022
1	0	0	0	0	38
2	0	0	0	0	227
3	0	0	0	0	123
4	0	0	0	0	769
5	0	0	0	0	510
6	0	0	0	0	556
7	0	0	0	0	547
8	0	0	0	0	308
9	0	0	0	0	671
10	0	0	0	0	242
11	0	0	0	0	558
12	0	0	0	0	287
13	0	0	0	0	663
14	0	0	0	0	311
15	0	0	0	0	340
0	0	0	0	0	589
1	0	0	0	0	759
2	0	0	0	0	379
3	0	0	0	0	560
4	0	0	0	0	234
5	0	0	0	0	547
6	0	0	0	0	332
7	0	0	0	0	595
8	0	0	0	0	559
9	0	0	0	0	506
10	0	0	0	0	293
11	0	0	0	0	445
12	0	0	0	0	463
13	0	0	0	0	481
14	0	0	0	0	523
15	0	0	0	0	556
0	0	0	0	0	465
1	0	0	0	0	533
2	0	0	0	0	372
3	0	0	0	0	496
4	0	0	0	0	675
5	0	0	0	0	366
6	0	0	0	0	451
7	0	0	0	0	463
8	0	0	0	0	590
9	0	0	0	0	458
10	0	0	0	0	463
11	0	0	0	0	492
12	0	0	0	0	416
13	0	0	0	0	807
14	0	0	0	0	403
15	0	0	0	0	441
0	0	0	0	0	667
1	0	0	0	0	473
2	0	0	0	0	514
3	0	0	0	0	597
4	0	0	0	0	502
5	0	0	0	0	431
6	0	0	0	0	507
7	0	0	0	0	490
8	0	0	0	0	520
9	0	0	0	0	497
10	0	0	0	0	710
11	0	0	0	0	527
12	0	0	0	0	534
13	0	0	0	0	482
14	0	0	0	0	503
15	0	0	0	0	588
0	0	0	0	0	426
1	0	0	0	0	540
2	0	0	0	0	528
3	0	0	0	0	474
4	0	0	0	0	486
5	0	0	0	0	506
6	0	0	0	0	534
7	0	0	0	0	511
8	0	0	0	0	485
9	0	0	0	0	497
10	0	0	0	0	505
11	0	0	0	0	584
12	0	0	0	0	519
13	0	0	0	0	519
14	0	0	0	0	508
15	0	0	0	0	542
0	0	0	0	0	549
1	0	0	0	0	526
2	0	0	0	0	533
3	0	0	0	0	504
4	0	0	0	0	517
5	0	0	0	0	544
6	0	0	0	0	498
7	0	0	0	0	482
8	0	0	0	0	548
9	0	0	0	0	459
10	0	0	0	0	533
11	0	0	0	0	554
12	0	0	0	0	477
13	0	0	0	0	494
14	0	0	0	0	535
15	0	0	0	0	553
0	0	0	0	0	546
1	0	0	0	0	514
2	0	0	0	0	521
3	0	0	0	0	499
4	0	0	0	0	526
5	0	0	0	0	504
6	0	0	0	0	506
7	0	0	0	0	611
8	0	0	0	0	483
9	0	0	0	0	502
10	0	0	0	0	550
11	0	0	0	0	519
12	0	0	0	0	557
13	0	0	0	0	521
14	0	0	0	0	583
15	0	0	0	0	489
0	0	0	0	0	528
1	0	0	0	0	521
2	0	0	0	0	516
3	0	0	0	0	500
4	0	0	0	0	480
5	0	0	0	0	541
6	0	0	0	0	499
7	0	0	0	0	527
8	0	0	0	0	513
9	0	0	0	0	490
10	0	0	0	0	519
11	0	0	0	0	504
12	0	0	0	0	539
13	0	0	0	0	479
14	0	0	0	0	528
15	0	0	0	0	501
0	0	0	0	0	510
1	0	0	0	0	529
2	0	0	0	0	532
3	0	0	0	0	493
4	0	0	0	0	535
5	0	0	0	0	509
6	0	0	0	0	495
7	0	0	0	0	511
8	0	0	0	0	515
9	0	0	0	0	491
10	0	0	0	0	526
11	0	0	0	0	508
12	0	0	0	0	513
13	0	0	0	0	504
14	0	0	0	0	495
15	0	0	0	0	527
0	0	0	0	0	512
1	0	0	0	0	508
2	0	0	0	0	500
3	0	0	0	0	512
4	0	0	0	0	516
5	0	0	0	0	494
6	0	0	0	0	512
7	0	0	0	0	496
8	0	0	0	0	525
9	0	0	0	0	504
10	0	0	0	0	532
11	0	0	0	0	522
12	0	0	0	0	537
13	0	0	0	0	504
14	0	0	0	0	519
15	0	0	0	0	511
0	0	0	0	0	513
1	0	0	0	0	513
2	0	0	0	0	531
3	0	0	0	0	487
4	0	0	0	0	507
5	0	0	0	0	516
6	0	0	0	0	540
7	0	0	0	0	527
8	0	0	0	0	551
9	0	0	0	0	485
10	0	0	0	0	493
11	0	0	0	0	526
12	0	0	0	0	485
13	0	0	0	0	584
14	0	0	0	0	485
15	0	0	0	0	516
0	0	0	0	0	508
1	0	0	0	0	523
2	0	0	0	0	518
3	0	0	0	0	494
4	0	0	0	0	513
5	0	0	0	0	511
6	0	0	0	0	514
7	0	0	0	0	513
8	0	0	0	0	488
9	0	0	0	0	548
10	0	0	0	0	536
11	0	0	0	0	482
12	0	0	0	0	552
13	0	0	0	0	542
14	0	0	0	0	498
15	0	0	0	0	514
0	0	0	0	0	497
1	0	0	0	0	567
2	0	0	0	0	512
3	0	0	0	0	463
4	0	0	0	0	534
5	0	0	0	0	540
6	0	0	0	0	508
7	0	0	0	0	508
8	0	0	0	0	520
9	0	0	0	0	508
10	0	0	0	0	527
11	0	0	0	0	528
12	0	0	0	0	527
13	0	0	0	0	495
14	0	0	0	0	503
15	0	0	0	0	501
0	0	0	0	0	511
1	0	0	0	0	565
2	0	0	0	0	470
3	0	0	0	0	545
4	0	0	0	0	508
5	0	0	0	0	503
6	0	0	0	0	527
7	0	0	0	0	489
8	0	0	0	0	489
9	0	0	0	0	471
10	0	0	0	0	528
11	0	0	0	0	499
12	0	0	0	0	486
13	0	0	0	0	523
14	0	0	0	0	546
15	0	0	0	0	480
0	0	0	0	0	549
1	0	0	0	0	512
2	0	0	0	0	509
3	0	0	0	0	491
4	0	0	0	0	517
5	0	0	0	0	524
6	0	0	0	0	496
7	0	0	0	0	526
8	0	0	0	0	492
9	0	0	0	0	537
10	0	0	0	0	489
11	0	0	0	0	608
12	0	0	0	0	478
13	0	0	0	0	509
14	0	0	0	0	507
15	0	0	0	0	500
0	0	0	0	0	521
1	0	0	0	0	495
2	0	0	0	0	523
3	0	0	0	0	493
4	0	0	0	0	523
5	0	0	0	0	544
6	0	0	0	0	487
7	0	0	0	0	500
8	0	0	0	0	733
9	0	0	0	0	457
10	0	0	0	0	457
11	0	0	0	0	511
12	0	0	0	0	512
13	0	0	0	0	543
14	0	0	0	0	520
15	0	0	0	0	471
0	0	0	0	0	538
1	0	0	0	0	624
2	0	0	0	0	506
3	0	0	0	0	519
4	0	0	0	0	499
5	0	0	0	0	499
6	0	0	0	0	524
7	0	0	0	0	531
8	0	0	0	0	498
9	0	0	0	0	536
10	0	0	0	0	556
11	0	0	0	0	497
12	0	0	0	0	504
13	0	0	0	0	483
14	0	0	0	0	491
15	0	0	0	0	526
0	0	0	0	0	523
1	0	0	0	0	506
2	0	0	0	0	546
3	0	0	0	0	482
4	0	0	0	0	499
5	0	0	0	0	508
6	0	0	0	0	490
7	0	0	0	0	566
8	0	0	0	0	470
9	0	0	0	0	494
10	0	0	0	0	539
11	0	0	0	0	486
12	0	0	0	0	536
13	0	0	0	0	530
14	0	0	0	0	487
15	0	0	0	0	493
0	0	0	0	0	643
1	0	0	0	0	398
2	0	0	0	0	472
3	0	0	0	0	612
4	0	0	0	0	484
5	0	0	0	0	569
6	0	0	0	0	535
7	0	0	0	0	503
8	0	0	0	0	504
9	0	0	0	0	494
10	0	0	0	0	553
11	0	0	0	0	420
12	0	0	0	0	672
13	0	0	0	0	338
14	0	0	0	0	446
15	0	0	0	0	651
0	0	0	0	0	591
1	0	0	0	0	560
2	0	0	0	0	729
3	0	0	0	0	111
4	0	0	0	0	946
5	0	0	0	0	0
6	0	0	0	0	643
7	0	0	0	0	664
8	0	0	0	0	0
9	0	0	0	0	1022
10	0	0	0	0	436
11	0	0	0	0	552
12	0	0	0	0	246
13	0	0	0	0	670
14	0	0	0	0	272
15	0	0	0	0	687
0	0	0	0	0	406
1	0	0	0	0	749
2	0	0	0	0	536
3	0	0	0	0	704
4	0	0	0	0	337
5	0	0	0	0	659
6	0	0	0	0	806
7	0	0	0	0	382
8	0	0	0	0	476
9	0	0	0	0	1022
10	0	0	0	0	173
11	0	0	0	0	495
12	0	0	0	0	600
13	0	0	0	0	851
14	0	0	0	0	540
15	0	0	0	0	433
0	0	0	0	0	593
1	0	0	0	0	639
2	0	0	0	0	407
3	0	0	0	0	385
4	0	0	0	0	420
5	0	0	0	0	711
6	0	0	0	0	595
7	0	0	0	0	353
8	0	0	0	0	607
9	0	0	0	0	456
10	0	0	0	0	411
11	0	0	0	0	564
12	0	0	0	0	503
13	0	0	0	0	983
14	0	0	0	0	396
15	0	0	0	0	443
0	0	0	0	0	652
1	0	0	0	0	670
2	0	0	0	0	459
3	0	0	0	0	745
4	0	0	0	0	353
5	0	0	0	0	503
6	0	0	0	0	492
7	0	0	0	0	489
8	0	0	0	0	475
9	0	0	0	0	709
10	0	0	0	0	593
11	0	0	0	0	498
12	0	0	0	0	497
13	0	0	0	0	453
14	0	0	0	0	440
15	0	0	0	0	407
0	0	0	0	0	592
1	0	0	0	0	496
2	0	0	0	0	446
3	0	0	0	0	496
4	0	0	0	0	436
5	0	0	0	0	575
6	0	0	0	0	471
7	0	0	0	0	460
8	0	0	0	0	525
9	0	0	0	0	441
10	0	0	0	0	551
11	0	0	0	0	646
12	0	0	0	0	378
13	0	0	0	0	544
14	0	0	0	0	499
15	0	0	0	0	486
0	0	0	0	0	479
1	0	0	0	0	494
2	0	0	0	0	719
3	0	0	0	0	492
4	0	0	0	0	522
5	0	0	0	0	484
6	0	0	0	0	483
7	0	0	0	0	604
8	0	0	0	0	491
9	0	0	0	0	522
10	0	0	0	0	557
11	0	0	0	0	542
12	0	0	0	0	587
13	0	0	0	0	507
14	0	0	0	0	551
15	0	0	0	0	601
0	0	0	0	0	423
1	0	0	0	0	543
2	0	0	0	0	411
3	0	0	0	0	471
4	0	0	0	0	467
5	0	0	0	0	471
6	0	0	0	0	663
7	0	0	0	0	467
8	0	0	0	0	610
9	0	0	0	0	535
10	0	0	0	0	527
11	0	0	0	0	518
12	0	0	0	0	479
13	0	0	0	0	555
14	0	0	0	0	498
15	0	0	0	0	616
0	0	0	0	0	475
1	0	0	0	0	618
2	0	0	0	0	492
3	0	0	0	0	512
4	0	0	0	0	455
5	0	0	0	0	492
6	0	0	0	0	498
7	0	0	0	0	513
8	0	0	0	0	504
9	0	0	0	0	529
10	0	0	0	0	558
11	0	0	0	0	499
12	0	0	0	0	483
13	0	0	0	0	503
14	0	0	0	0	508
15	0	0	0	0	574
0	0	0	0	0	474
1	0	0	0	0	497
2	0	0	0	0	497
3	0	0	0	0	509
4	0	0	0	0	492
5	0	0	0	0	527
6	0	0	0	0	542
7	0	0	0	0	476
8	0	0	0	0	514
9	0	0	0	0	487
10	0	0	0	0	499
11	0	0	0	0	498
12	0	0	0	0	520
13	0	0	0	0	584
14	0	0	0	0	603
15	0	0	0	0	483
0	0	0	0	0	491
1	0	0	0	0	532
2	0	0	0	0	505
3	0	0	0	0	488
4	0	0	0	0	531
5	0	0	0	0	569
6	0	0	0	0	451
7	0	0	0	0	542
8	0	0	0	0	495
9	0	0	0	0	527
10	0	0	0	0	491
11	0	0	0	0	551
12	0	0	0	0	505
13	0	0	0	0	523
14	0	0	0	0	493
15	0	0	0	0	507
0	0	0	0	0	518
1	0	0	0	0	505
2	0	0	0	0	518
3	0	0	0	0	504
4	0	0	0	0	507
5	0	0	0	0	516
6	0	0	0	0	509
7	0	0	0	0	512
8	0	0	0	0	526
9	0	0	0	0	509
10	0	0	0	0	537
11	0	0	0	0	510
12	0	0	0	0	537
13	0	0	0	0	494
14	0	0	0	0	524
15	0	0	0	0	503
0	0	0	0	0	533
1	0	0	0	0	500
2	0	0	0	0	529
3	0	0	0	0	518
4	0	0	0	0	499
5	0	0	0	0	513
6	0	0	0	0	512
7	0	0	0	0	517
8	0	0	0	0	512
9	0	0	0	0	511
10	0	0	0	0	503
11	0	0	0	0	495
12	0	0	0	0	514
13	0	0	0	0	556
14	0	0	0	0	508
15	0	0	0	0	504
0	0	0	0	0	516
1	0	0	0	0	538
2	0	0	0	0	485
3	0	0	0	0	515
4	0	0	0	0	490
5	0	0	0	0	513
6	0	0	0	0	517
7	0	0	0	0	527
8	0	0	0	0	509
9	0	0	0	0	542
10	0	0	0	0	487
11	0	0	0	0	525
12	0	0	0	0	509
13	0	0	0	0	504
14	0	0	0	0	507
15	0	0	0	0	521
0	0	0	0	0	502
1	0	0	0	0	511
2	0	0	0	0	508
3	0	0	0	0	525
4	0	0	0	0	503
5	0	0	0	0	524
6	0	0	0	0	514
7	0	0	0	0	527
8	0	0	0	0	505
9	0	0	0	0	506
10	0	0	0	0	512
11	0	0	0	0	506
12	0	0	0	0	534
13	0	0	0	0	491
14	0	0	0	0	503
15	0	0	0	0	504
0	0	0	0	0	509
1	0	0	0	0	501
2	0	0	0	0	495
3	0	0	0	0	455
4	0	0	0	0	499
5	0	0	0	0	516
6	0	0	0	0	512
7	0	0	0	0	542
8	0	0	0	0	508
9	0	0	0	0	508
10	0	0	0	0	534
11	0	0	0	0	509
12	0	0	0	0	481
13	0	0	0	0	492
14	0	0	0	0	555
15	0	0	0	0	486
0	0	0	0	0	537
1	0	0	0	0	526
2	0	0	0	0	508
3	0	0	0	0	488
4	0	0	0	0	552
5	0	0	0	0	515
6	0	0	0	0	497
7	0	0	0	0	544
8	0	0	0	0	496
9	0	0	0	0	513
10	0	0	0	0	504
11	0	0	0	0	492
12	0	0	0	0	519
13	0	0	0	0	523
14	0	0	0	0	486
15	0	0	0	0	489
0	0	0	0	0	592
1	0	0	0	0	554
2	0	0	0	0	477
3	0	0	0	0	524
4	0	0	0	0	528
5	0	0	0	0	470
6	0	0	0	0	579
7	0	0	0	0	538
8	0	0	0	0	502
9	0	0	0	0	496
10	0	0	0	0	528
11	0	0	0	0	504
12	0	0	0	0	526
13	0	0	0	0	492
14	0	0	0	0	512
15	0	0	0	0	537
0	0	0	0	0	479
1	0	0	0	0	516
2	0	0	0	0	507
3	0	0	0	0	550
4	0	0	0	0	507
5	0	0	0	0	505
6	0	0	0	0	495
7	0	0	0	0	525
8	0	0	0	0	510
9	0	0	0	0	514
10	0	0	0	0	515
11	0	0	0	0	506
12	0	0	0	0	518
13	0	0	0	0	482
14	0	0	0	0	518
15	0	0	0	0	506
0	0	0	0	0	502
1	0	0	0	0	509
2	0	0	0	0	543
3	0	0	0	0	474
4	0	0	0	0	484
5	0	0	0	0	495
6	0	0	0	0	486
7	0	0	0	0	541
8	0	0	0	0	502
9	0	0	0	0	504
10	0	0	0	0	514
11	0	0	0	0	537
12	0	0	0	0	505
13	0	0	0	0	525
14	0	0	0	0	515
15	0	0	0	0	514
0	0	0	0	0	534
1	0	0	0	0	486
2	0	0	0	0	580
3	0	0	0	0	524
4	0	0	0	0	503
5	0	0	0	0	500
6	0	0	0	0	522
7	0	0	0	0	503
8	0	0	0	0	525
9	0	0	0	0	491
10	0	0	0	0	547
11	0	0	0	0	494
12	0	0	0	0	505
13	0	0	0	0	491
14	0	0	0	0	503
15	0	0	0	0	499
0	0	0	0	0	529
1	0	0	0	0	502
2	0	0	0	0	511
3	0	0	0	0	518
4	0	0	0	0	509
5	0	0	0	0	519
6	0	0	0	0	514
7	0	0	0	0	571
8	0	0	0	0	497
9	0	0	0	0	527
10	0	0	0	0	487
11	0	0	0	0	545
12	0	0	0	0	507
13	0	0	0	0	474
14	0	0	0	0	504
15	0	0	0	0	541
0	0	0	0	0	440
1	0	0	0	0	541
2	0	0	0	0	504
3	0	0	0	0	529
4	0	0	0	0	507
5	0	0	0	0	491
6	0	0	0	0	439
7	0	0	0	0	482
8	0	0	0	0	684
9	0	0	0	0	414
10	0	0	0	0	550
11	0	0	0	0	527
12	0	0	0	0	406
13	0	0	0	0	666
14	0	0	0	0	0
15	0	0	0	0	1004
0	0	0	0	0	183
1	0	0	0	0	910
2	0	0	0	0	728
3	0	0	0	0	0
4	0	0	0	0	620
5	0	0	0	0	452
6	0	0	0	0	636
7	0	0	0	0	332
8	0	0	0	0	874
9	0	0	0	0	444
10	0	0	0	0	439
11	0	0	0	0	583
12	0	0	0	0	454
13	0	0	0	0	531
14	0	0	0	0	450
15	0	0	0	0	539
0	0	0	0	0	756
1	0	0	0	0	681
2	0	0	0	0	404
3	0	0	0	0	298
4	0	0	0	0	930
5	0	0	0	0	416
6	0	0	0	0	606
7	0	0	0	0	469
8	0	0	0	0	548
9	0	0	0	0	502
10	0	0	0	0	581
11	0	0	0	0	383
12	0	0	0	0	208
13	0	0	0	0	686
14	0	0	0	0	958
15	0	0	0	0	353
0	0	0	0	0	487
1	0	0	0	0	663
2	0	0	0	0	675
3	0	0	0	0	557
4	0	0	0	0	604
5	0	0	0	0	480
6	0	0	0	0	910
7	0	0	0	0	661
8	0	0	0	0	401
9	0	0	0	0	498
10	0	0	0	0	451
11	0	0	0	0	495
12	0	0	0	0	567
13	0	0	0	0	522
14	0	0	0	0	724
15	0	0	0	0	294
0	0	0	0	0	633
1	0	0	0	0	609
2	0	0	0	0	350
3	0	0	0	0	570
4	0	0	0	0	432
5	0	0	0	0	402
6	0	0	0	0	531
7	0	0	0	0	475
8	0	0	0	0	473
9	0	0	0	0	471
10	0	0	0	0	645
11	0	0	0	0	470
12	0	0	0	0	610
13	0	0	0	0	499
14	0	0	0	0	475
15	0	0	0	0	343
0	0	0	0	0	694
1	0	0	0	0	492
2	0	0	0	0	444
3	0	0	0	0	462
4	0	0	0	0	485
5	0	0	0	0	671
6	0	0	0	0	479
7	0	0	0	0	672
8	0	0	0	0	425
9	0	0	0	0	532
10	0	0	0	0	474
11	0	0	0	0	674
12	0	0	0	0	505
13	0	0	0	0	472
14	0	0	0	0	638
15	0	0	0	0	568
0	0	0	0	0	578
1	0	0	0	0	420
2	0	0	0	0	514
3	0	0	0	0	493
4	0	0	0	0	469
5	0	0	0	0	428
6	0	0	0	0	544
7	0	0	0	0	481
8	0	0	0	0	536
9	0	0	0	0	462
10	0	0	0	0	513
11	0	0	0	0	500
12	0	0	0	0	489
13	0	0	0	0	525
14	0	0	0	0	430
15	0	0	0	0	505
0	0	0	0	0	561
1	0	0	0	0	450
2	0	0	0	0	564
3	0	0	0	0	531
4	0	0	0	0	429
5	0	0	0	0	487
6	0	0	0	0	542
7	0	0	0	0	528
8	0	0	0	0	471
9	0	0	0	0	602
10	0	0	0	0	478
11	0	0	0	0	468
12	0	0	0	0	560
13	0	0	0	0	467
14	0	0	0	0	531
15	0	0	0	0	524
0	0	0	0	0	477
1	0	0	0	0	524
2	0	0	0	0	515
3	0	0	0	0	547
4	0	0	0	0	534
5	0	0	0	0	480
6	0	0	0	0	509
7	0	0	0	0	523
8	0	0	0	0	477
9	0	0	0	0	503
10	0	0	0	0	543
11	0	0	0	0	444
12	0	0	0	0	557
13	0	0	0	0	482
14	0	0	0	0	531
15	0	0	0	0	553
0	0	0	0	0	521
1	0	0	0	0	557
2	0	0	0	0	496
3	0	0	0	0	525
4	0	0	0	0	541
5	0	0	0	0	505
6	0	0	0	0	565
7	0	0	0	0	497
8	0	0	0	0	506
9	0	0	0	0	515
10	0	0	0	0	498
11	0	0	0	0	533
12	0	0	0	0	511
13	0	0	0	0	565
14	0	0	0	0	482
15	0	0	0	0	523
0	0	0	0	0	501
1	0	0	0	0	516
2	0	0	0	0	561
3	0	0	0	0	503
4	0	0	0	0	511
5	0	0	0	0	504
6	0	0	0	0	506
7	0	0	0	0	513
8	0	0	0	0	494
9	0	0	0	0	510
10	0	0	0	0	524
11	0	0	0	0	531
12	0	0	0	0	523
13	0	0	0	0	497
14	0	0	0	0	500
15	0	0	0	0	515
0	0	0	0	0	501
1	0	0	0	0	517
2	0	0	0	0	505
3	0	0	0	0	513
4	0	0	0	0	476
5	0	0	0	0	537
6	0	0	0	0	497
7	0	0	0	0	496
8	0	0	0	0	516
9	0	0	0	0	515
10	0	0	0	0	566
11	0	0	0	0	510
12	0	0	0	0	511
13	0	0	0	0	502
14	0	0	0	0	514
15	0	0	0	0	512
0	0	0	0	0	517
1	0	0	0	0	518
2	0	0	0	0	523
3	0	0	0	0	512
4	0	0	0	0	505
5	0	0	0	0	504
6	0	0	0	0	487
7	0	0	0	0	534
8	0	0	0	0	513
9	0	0	0	0	520
10	0	0	0	0	496
11	0	0	0	0	505
12	0	0	0	0	538
13	0	0	0	0	510
14	0	0	0	0	531
15	0	0	0	0	508
0	0	0	0	0	517
1	0	0	0	0	535
2	0	0	0	0	485
3	0	0	0	0	529
4	0	0	0	0	487
5	0	0	0	0	533
6	0	0	0	0	491
7	0	0	0	0	511
8	0	0	0	0	485
9	0	0	0	0	539
10	0	0	0	0	491
11	0	0	0	0	507
12	0	0	0	0	517
13	0	0	0	0	518
14	0	0	0	0	491
15	0	0	0	0	511
0	0	0	0	0	516
1	0	0	0	0	475
2	0	0	0	0	584
3	0	0	0	0	508
4	0	0	0	0	562
5	0	0	0	0	521
6	0	0	0	0	496
7	0	0	0	0	521
8	0	0	0	0	494
9	0	0	0	0	519
10	0	0	0	0	538
11	0	0	0	0	501
12	0	0	0	0	535
13	0	0	0	0	502
14	0	0	0	0	533
15	0	0	0	0	510
0	0	0	0	0	511
1	0	0	0	0	527
2	0	0	0	0	542
3	0	0	0	0	525
4	0	0	0	0	486
5	0	0	0	0	534
6	0	0	0	0	504
7	0	0	0	0	514
8	0	0	0	0	496
9	0	0	0	0	524
10	0	0	0	0	500
11	0	0	0	0	527
12	0	0	0	0	501
13	0	0	0	0	508
14	0	0	0	0	525
15	0	0	0	0	527
0	0	0	0	0	529
1	0	0	0	0	490
2	0	0	0	0	544
3	0	0	0	0	511
4	0	0	0	0	507
5	0	0	0	0	513
6	0	0	0	0	486
7	0	0	0	0	529
8	0	0	0	0	557
9	0	0	0	0	522
10	0	0	0	0	496
11	0	0	0	0	538
12	0	0	0	0	518
13	0	0	0	0	557
14	0	0	0	0	480
15	0	0	0	0	537
0	0	0	0	0	499
1	0	0	0	0	497
2	0	0	0	0	537
3	0	0	0	0	520
4	0	0	0	0	489
5	0	0	0	0	526
6	0	0	0	0	545
7	0	0	0	0	515
8	0	0	0	0	479
9	0	0	0	0	495
10	0	0	0	0	510
11	0	0	0	0	542
12	0	0	0	0	469
13	0	0	0	0	507
14	0	0	0	0	454
15	0	0	0	0	510
0	0	0	0	0	494
1	0	0	0	0	520
2	0	0	0	0	537
3	0	0	0	0	509
4	0	0	0	0	502
5	0	0	0	0	483
6	0	0	0	0	543
7	0	0	0	0	510
8	0	0	0	0	529
9	0	0	0	0	516
10	0	0	0	0	523
11	0	0	0	0	509
12	0	0	0	0	494
13	0	0	0	0	501
14	0	0	0	0	531
15	0	0	0	0	505
0	0	0	0	0	510
1	0	0	0	0	487
2	0	0	0	0	546
3	0	0	0	0	508
4	0	0	0	0	570
5	0	0	0	0	494
6	0	0	0	0	504
7	0	0	0	0	525
8	0	0	0	0	569
9	0	0	0	0	470
10	0	0	0	0	502
11	0	0	0	0	524
12	0	0	0	0	505
13	0	0	0	0	557
14	0	0	0	0	513
15	0	0	0	0	490
0	0	0	0	0	535
1	0	0	0	0	497
2	0	0	0	0	436
3	0	0	0	0	606
4	0	0	0	0	406
5	0	0	0	0	467
6	0	0	0	0	707
7	0	0	0	0	325
8	0	0	0	0	612
9	0	0	0	0	403
10	0	0	0	0	731
11	0	0	0	0	565
12	0	0	0	0	329
13	0	0	0	0	1022
14	0	0	0	0	0
15	0	0	0	0	690
0	0	0	0	0	256
1	0	0	0	0	952
2	0	0	0	0	0
3	0	0	0	0	886
4	0	0	0	0	529
5	0	0	0	0	590
6	0	0	0	0	371
7	0	0	0	0	577
8	0	0	0	0	901
9	0	0	0	0	256
10	0	0	0	0	652
11	0	0	0	0	182
12	0	0	0	0	16
13	0	0	0	0	883
14	0	0	0	0	0
15	0	0	0	0	739
0	0	0	0	0	722
1	0	0	0	0	756
2	0	0	0	0	309
3	0	0	0	0	893
4	0	0	0	0	489
5	0	0	0	0	813
6	0	0	0	0	223
7	0	0	0	0	387
8	0	0	0	0	641
9	0	0	0	0	570
10	0	0	0	0	502
11	0	0	0	0	529
12	0	0	0	0	451
13	0	0	0	0	486
14	0	0	0	0	407
15	0	0	0	0	487
0	0	0	0	0	518
1	0	0	0	0	953
2	0	0	0	0	341
3	0	0	0	0	504
4	0	0	0	0	483
5	0	0	0	0	535
6	0	0	0	0	621
7	0	0	0	0	456
8	0	0	0	0	757
9	0	0	0	0	430
10	0	0	0	0	527
11	0	0	0	0	544
12	0	0	0	0	383
13	0	0	0	0	567
14	0	0	0	0	458
15	0	0	0	0	539
0	0	0	0	0	459
1	0	0	0	0	485
2	0	0	0	0	426
3	0	0	0	0	659
4	0	0	0	0	451
5	0	0	0	0	553
6	0	0	0	0	452
7	0	0	0	0	622
8	0	0	0	0	332
9	0	0	0	0	558
10	0	0	0	0	396
11	0	0	0	0	558
12	0	0	0	0	496
13	0	0	0	0	526
14	0	0	0	0	456
15	0	0	0	0	562
0	0	0	0	0	473
1	0	0	0	0	604
2	0	0	0	0	445
3	0	0	0	0	543
4	0	0	0	0	446
5	0	0	0	0	490
6	0	0	0	0	470
7	0	0	0	0	561
8	0	0	0	0	481
9	0	0	0	0	516
10	0	0	0	0	512
11	0	0	0	0	436
12	0	0	0	0	500
13	0	0	0	0	503
14	0	0	0	0	568
15	0	0	0	0	489
0	0	0	0	0	583
1	0	0	0	0	483
2	0	0	0	0	498
3	0	0	0	0	552
4	0	0	0	0	531
5	0	0	0	0	542
6	0	0	0	0	480
7	0	0	0	0	472
8	0	0	0	0	504
9	0	0	0	0	472
10	0	0	0	0	602
11	0	0	0	0	476
12	0	0	0	0	467
13	0	0	0	0	518
14	0	0	0	0	521
15	0	0	0	0	452
0	0	0	0	0	533
1	0	0	0	0	483
2	0	0	0	0	496
3	0	0	0	0	585
4	0	0	0	0	497
5	0	0	0	0	537
6	0	0	0	0	496
7	0	0	0	0	487
8	0	0	0	0	562
9	0	0	0	0	519
10	0	0	0	0	524
11	0	0	0	0	579
12	0	0	0	0	489
13	0	0	0	0	562
14	0	0	0	0	477
15	0	0	0	0	549
0	0	0	0	0	640
1	0	0	0	0	458
2	0	0	0	0	539
3	0	0	0	0	500
4	0	0	0	0	506
5	0	0	0	0	522
6	0	0	0	0	543
7	0	0	0	0	568
8	0	0	0	0	423
9	0	0	0	0	538
10	0	0	0	0	495
11	0	0	0	0	528
12	0	0	0	0	464
13	0	0	0	0	580
14	0	0	0	0	521
15	0	0	0	0	460
0	0	0	0	0	513
1	0	0	0	0	470
2	0	0	0	0	501
3	0	0	0	0	531
4	0	0	0	0	536
5	0	0	0	0	532
6	0	0	0	0	481
7	0	0	0	0	520
8	0	0	0	0	488
9	0	0	0	0	534
10	0	0	0	0	455
11	0	0	0	0	437
12	0	0	0	0	544
13	0	0	0	0	471
14	0	0	0	0	521
15	0	0	0	0	491
0	0	0	0	0	536
1	0	0	0	0	494
2	0	0	0	0	525
3	0	0	0	0	520
4	0	0	0	0	495
5	0	0	0	0	544
6	0	0	0	0	550
7	0	0	0	0	518
8	0	0	0	0	493
9	0	0	0	0	540
10	0	0	0	0	501
11	0	0	0	0	519
12	0	0	0	0	500
13	0	0	0	0	544
14	0	0	0	0	494
15	0	0	0	0	524
0	0	0	0	0	521
1	0	0	0	0	500
2	0	0	0	0	498
3	0	0	0	0	519
4	0	0	0	0	497
5	0	0	0	0	510
6	0	0	0	0	505
7	0	0	0	0	541
8	0	0	0	0	509
9	0	0	0	0	506
10	0	0	0	0	545
11	0	0	0	0	487
12	0	0	0	0	502
13	0	0	0	0	529
14	0	0	0	0	543
15	0	0	0	0	495
0	0	0	0	0	513
1	0	0	0	0	536
2	0	0	0	0	531
3	0	0	0	0	505
4	0	0	0	0	515
5	0	0	0	0	517
6	0	0	0	0	487
7	0	0	0	0	522
8	0	0	0	0	503
9	0	0	0	0	500
10	0	0	0	0	484
11	0	0	0	0	568
12	0	0	0	0	484
13	0	0	0	0	473
14	0	0	0	0	504
15	0	0	0	0	502
0	0	0	0	0	508
1	0	0	0	0	495
2	0	0	0	0	598
3	0	0	0	0	488
4	0	0	0	0	489
5	0	0	0	0	521
6	0	0	0	0	577
7	0	0	0	0	524
8	0	0	0	0	422
9	0	0	0	0	491
10	0	0	0	0	498
11	0	0	0	0	544
12	0	0	0	0	527
13	0	0	0	0	540
14	0	0	0	0	541
15	0	0	0	0	532
0	0	0	0	0	506
1	0	0	0	0	521
2	0	0	0	0	481
3	0	0	0	0	515
4	0	0	0	0	517
5	0	0	0	0	567
6	0	0	0	0	500
7	0	0	0	0	502
8	0	0	0	0	519
9	0	0	0	0	523
10	0	0	0	0	476
11	0	0	0	0	535
12	0	0	0	0	489
13	0	0	0	0	493
14	0	0	0	0	560
15	0	0	0	0	492
0	0	0	0	0	500
1	0	0	0	0	561
2	0	0	0	0	544
3	0	0	0	0	571
4	0	0	0	0	557
5	0	0	0	0	475
6	0	0	0	0	525
7	0	0	0	0	514
8	0	0	0	0	550
9	0	0	0	0	512
10	0	0	0	0	512
11	0	0	0	0	506
12	0	0	0	0	473
13	0	0	0	0	498
14	0	0	0	0	503
15	0	0	0	0	515
0	0	0	0	0	536
1	0	0	0	0	520
2	0	0	0	0	519
3	0	0	0	0	532
4	0	0	0	0	492
5	0	0	0	0	538
6	0	0	0	0	489
7	0	0	0	0	507
8	0	0	0	0	524
9	0	0	0	0	513
10	0	0	0	0	516
11	0	0	0	0	487
12	0	0	0	0	489
13	0	0	0	0	527
14	0	0	0	0	551
15	0	0	0	0	486
0	0	0	0	0	579
1	0	0	0	0	514
2	0	0	0	0	497
3	0	0	0	0	517
4	0	0	0	0	544
5	0	0	0	0	499
6	0	0	0	0	491
7	0	0	0	0	453
8	0	0	0	0	530
9	0	0	0	0	512
10	0	0	0	0	509
11	0	0	0	0	497
12	0	0	0	0	532
13	0	0	0	0	553
14	0	0	0	0	489
15	0	0	0	0	504
0	0	0	0	0	514
1	0	0	0	0	523
2	0	0	0	0	487
3	0	0	0	0	524
4	0	0	0	0	499
5	0	0	0	0	505
6	0	0	0	0	531
7	0	0	0	0	499
8	0	0	0	0	489
9	0	0	0	0	535
10	0	0	0	0	504
11	0	0	0	0	502
12	0	0	0	0	542
13	0	0	0	0	487
14	0	0	0	0	528
15	0	0	0	0	512
0	0	0	0	0	533
1	0	0	0	0	465
2	0	0	0	0	595
3	0	0	0	0	499
4	0	0	0	0	455
5	0	0	0	0	574
6	0	0	0	0	527
7	0	0	0	0	433
8	0	0	0	0	494
9	0	0	0	0	628
10	0	0	0	0	459
11	0	0	0	0	605
12	0	0	0	0	436
13	0	0	0	0	495
14	0	0	0	0	515
15	0	0	0	0	601
0	0	0	0	0	434
1	0	0	0	0	577
2	0	0	0	0	579
3	0	0	0	0	387
4	0	0	0	0	401
5	0	0	0	0	799
6	0	0	0	0	120
7	0	0	0	0	643
8	0	0	0	0	748
9	0	0	0	0	208
10	0	0	0	0	516
11	0	0	0	0	752
12	0	0	0	0	549
13	0	0	0	0	0
14	0	0	0	0	738
15	0	0	0	0	564
0	0	0	0	0	341
1	0	0	0	0	504
2	0	0	0	0	472
3	0	0	0	0	539
4	0	0	0	0	616
5	0	0	0	0	562
6	0	0	0	0	505
7	0	0	0	0	619
8	0	0	0	0	599
9	0	0	0	0	351
10	0	0	0	0	780
11	0	0	0	0	149
12	0	0	0	0	601
13	0	0	0	0	352
14	0	0	0	0	470
15	0	0	0	0	476
0	0	0	0	0	445
1	0	0	0	0	507
2	0	0	0	0	640
3	0	0	0	0	660
4	0	0	0	0	487
5	0	0	0	0	662
6	0	0	0	0	480
7	0	0	0	0	494
8	0	0	0	0	616
9	0	0	0	0	264
10	0	0	0	0	557
11	0	0	0	0	490
12	0	0	0	0	470
13	0	0	0	0	629
14	0	0	0	0	475
15	0	0	0	0	387
0	0	0	0	0	527
1	0	0	0	0	457
2	0	0	0	0	494
3	0	0	0	0	472
4	0	0	0	0	479
5	0	0	0	0	642
6	0	0	0	0	440
7	0	0	0	0	588
8	0	0	0	0	602
9	0	0	0	0	453
10	0	0	0	0	473
11	0	0	0	0	483
12	0	0	0	0	481
13	0	0	0	0	450
14	0	0	0	0	624
15	0	0	0	0	450
0	0	0	0	0	454
1	0	0	0	0	487
2	0	0	0	0	560
3	0	0	0	0	534
4	0	0	0	0	514
5	0	0	0	0	514
6	0	0	0	0	563
7	0	0	0	0	454
8	0	0	0	0	437
9	0	0	0	0	594
10	0	0	0	0	448
11	0	0	0	0	440
12	0	0	0	0	487
13	0	0	0	0	530
14	0	0	0	0	472
15	0	0	0	0	519
0	0	0	0	0	568
1	0	0	0	0	536
2	0	0	0	0	513
3	0	0	0	0	608
4	0	0	0	0	437
5	0	0	0	0	568
6	0	0	0	0	494
7	0	0	0	0	463
8	0	0	0	0	624
9	0	0	0	0	487
10	0	0	0	0	472
11	0	0	0	0	579
12	0	0	0	0	513
13	0	0	0	0	469
14	0	0	0	0	539
15	0	0	0	0	449
0	0	0	0	0	507
1	0	0	0	0	443
2	0	0	0	0	534
3	0	0	0	0	497
4	0	0	0	0	577
5	0	0	0	0	506
6	0	0	0	0	551
7	0	0	0	0	454
8	0	0	0	0	507
9	0	0	0	0	505
10	0	0	0	0	489
11	0	0	0	0	441
12	0	0	0	0	555
13	0	0	0	0	512
14	0	0	0	0	448
15	0	0	0	0	531
0	0	0	0	0	480
1	0	0	0	0	514
2	0	0	0	0	510
3	0	0	0	0	510
4	0	0	0	0	524
5	0	0	0	0	517
6	0	0	0	0	475
7	0	0	0	0	522
8	0	0	0	0	483
9	0	0	0	0	520
10	0	0	0	0	524
11	0	0	0	0	511
12	0	0	0	0	525
13	0	0	0	0	498
14	0	0	0	0	489
15	0	0	0	0	553
0	0	0	0	0	484
1	0	0	0	0	492
2	0	0	0	0	489
3	0	0	0	0	519
4	0	0	0	0	516
5	0	0	0	0	488
6	0	0	0	0	460
7	0	0	0	0	548
8	0	0	0	0	523
9	0	0	0	0	548
10	0	0	0	0	465
11	0	0	0	0	506
12	0	0	0	0	500
13	0	0	0	0	474
14	0	0	0	0	540
15	0	0	0	0	489
0	0	0	0	0	488
1	0	0	0	0	541
2	0	0	0	0	480
3	0	0	0	0	510
4	0	0	0	0	527
5	0	0	0	0	527
6	0	0	0	0	490
7	0	0	0	0	527
8	0	0	0	0	522
9	0	0	0	0	534
10	0	0	0	0	513
11	0	0	0	0	535
12	0	0	0	0	502
13	0	0	0	0	523
14	0	0	0	0	505
15	0	0	0	0	494
0	0	0	0	0	524
1	0	0	0	0	579
2	0	0	0	0	492
3	0	0	0	0	536
4	0	0	0	0	492
5	0	0	0	0	501
6	0	0	0	0	483
7	0	0	0	0	523
8	0	0	0	0	502
9	0	0	0	0	506
10	0	0	0	0	497
11	0	0	0	0	540
12	0	0	0	0	508
13	0	0	0	0	507
14	0	0	0	0	554
15	0	0	0	0	487
0	0	0	0	0	503
1	0	0	0	0	523
2	0	0	0	0	524
3	0	0	0	0	507
4	0	0	0	0	498
5	0	0	0	0	494
6	0	0	0	0	515
7	0	0	0	0	489
8	0	0	0	0	511
9	0	0	0	0	510
10	0	0	0	0	532
11	0	0	0	0	514
12	0	0	0	0	498
13	0	0	0	0	487
14	0	0	0	0	508
15	0	0	0	0	518
0	0	0	0	0	511
1	0	0	0	0	518
2	0	0	0	0	507
3	0	0	0	0	510
4	0	0	0	0	488
5	0	0	0	0	508
6	0	0	0	0	464
7	0	0	0	0	497
8	0	0	0	0	498
9	0	0	0	0	481
10	0	0	0	0	508
11	0	0	0	0	502
12	0	0	0	0	529
13	0	0	0	0	535
14	0	0	0	0	571
15	0	0	0	0	523
0	0	0	0	0	526
1	0	0	0	0	532
2	0	0	0	0	515
3	0	0	0	0	512
4	0	0	0	0	499
5	0	0	0	0	579
6	0	0	0	0	518
7	0	0	0	0	519
8	0	0	0	0	509
9	0	0	0	0	511
10	0	0	0	0	479
11	0	0	0	0	525
12	0	0	0	0	512
13	0	0	0	0	493
14	0	0	0	0	524
15	0	0	0	0	507
0	0	0	0	0	506
1	0	0	0	0	512
2	0	0	0	0	516
3	0	0	0	0	530
4	0	0	0	0	490
5	0	0	0	0	531
6	0	0	0	0	502
7	0	0	0	0	522
8	0	0	0	0	507
9	0	0	0	0	494
10	0	0	0	0	500
11	0	0	0	0	538
12	0	0	0	0	496
13	0	0	0	0	503
14	0	0	0	0	505
15	0	0	0	0	506
0	0	0	0	0	512
1	0	0	0	0	486
2	0	0	0	0	542
3	0	0	0	0	516
4	0	0	0	0	508
5	0	0	0	0	518
6	0	0	0	0	549
7	0	0	0	0	504
8	0	0	0	0	504
9	0	0	0	0	528
10	0	0	0	0	514
11	0	0	0	0	494
12	0	0	0	0	522
13	0	0	0	0	479
14	0	0	0	0	519
15	0	0	0	0	522
0	0	0	0	0	510
1	0	0	0	0	510
2	0	0	0	0	524
3	0	0	0	0	508
4	0	0	0	0	486
5	0	0	0	0	527
6	0	0	0	0	515
7	0	0	0	0	513
8	0	0	0	0	512
9	0	0	0	0	499
10	0	0	0	0	515
11	0	0	0	0	545
12	0	0	0	0	520
13	0	0	0	0	497
14	0	0	0	0	496
15	0	0	0	0	474
0	0	0	0	0	525
1	0	0	0	0	498
2	0	0	0	0	513
3	0	0	0	0	498
4	0	0	0	0	504
